Photon    Coherent Incoher. Photoel. Nuclear  Electron Tot. w/  Tot. wo/ 
Energy    Scatter. Scatter. Absorb.  Pr. Prd. Pr. Prd. Coherent Coherent 

1.000E-03 2.256E+00 1.427E-02 1.183E+03 0.000E+00 0.000E+00 1.185E+03 1.183E+03 
1.500E-03 2.040E+00 2.477E-02 4.002E+02 0.000E+00 0.000E+00 4.023E+02 4.002E+02 
1.560E-03 2.015E+00 2.594E-02 3.600E+02 0.000E+00 0.000E+00 3.621E+02 3.600E+02 
1.560E-03 2.015E+00 2.594E-02 3.955E+03 0.000E+00 0.000E+00 3.957E+03 3.955E+03 
2.000E-03 1.838E+00 3.375E-02 2.261E+03 0.000E+00 0.000E+00 2.263E+03 2.261E+03 
3.000E-03 1.523E+00 4.732E-02 7.865E+02 0.000E+00 0.000E+00 7.881E+02 7.866E+02 
4.000E-03 1.295E+00 5.810E-02 3.591E+02 0.000E+00 0.000E+00 3.605E+02 3.592E+02 
5.000E-03 1.116E+00 6.787E-02 1.922E+02 0.000E+00 0.000E+00 1.934E+02 1.923E+02 
6.000E-03 9.638E-01 7.696E-02 1.143E+02 0.000E+00 0.000E+00 1.153E+02 1.143E+02 
7.000E-03 8.336E-01 8.532E-02 7.316E+01 0.000E+00 0.000E+00 7.408E+01 7.324E+01 
8.000E-03 7.229E-01 9.292E-02 4.950E+01 0.000E+00 0.000E+00 5.032E+01 4.960E+01 
9.000E-03 6.295E-01 9.974E-02 3.496E+01 0.000E+00 0.000E+00 3.569E+01 3.506E+01 
1.000E-02 5.513E-01 1.058E-01 2.556E+01 0.000E+00 0.000E+00 2.621E+01 2.566E+01 
1.100E-02 4.860E-01 1.111E-01 1.922E+01 0.000E+00 0.000E+00 1.981E+01 1.933E+01 
1.300E-02 3.855E-01 1.198E-01 1.161E+01 0.000E+00 0.000E+00 1.212E+01 1.173E+01 
1.500E-02 3.136E-01 1.265E-01 7.515E+00 0.000E+00 0.000E+00 7.955E+00 7.641E+00 
1.700E-02 2.608E-01 1.316E-01 5.121E+00 0.000E+00 0.000E+00 5.513E+00 5.252E+00 
1.900E-02 2.210E-01 1.355E-01 3.634E+00 0.000E+00 0.000E+00 3.990E+00 3.769E+00 
2.000E-02 2.046E-01 1.371E-01 3.100E+00 0.000E+00 0.000E+00 3.442E+00 3.237E+00 
2.100E-02 1.901E-01 1.385E-01 2.665E+00 0.000E+00 0.000E+00 2.993E+00 2.803E+00 
2.300E-02 1.655E-01 1.410E-01 2.007E+00 0.000E+00 0.000E+00 2.314E+00 2.148E+00 
2.500E-02 1.456E-01 1.430E-01 1.547E+00 0.000E+00 0.000E+00 1.836E+00 1.690E+00 
2.700E-02 1.293E-01 1.446E-01 1.215E+00 0.000E+00 0.000E+00 1.489E+00 1.360E+00 
2.900E-02 1.156E-01 1.459E-01 9.706E-01 0.000E+00 0.000E+00 1.232E+00 1.116E+00 
3.000E-02 1.095E-01 1.464E-01 8.722E-01 0.000E+00 0.000E+00 1.128E+00 1.019E+00 
3.100E-02 1.040E-01 1.469E-01 7.865E-01 0.000E+00 0.000E+00 1.037E+00 9.334E-01 
3.300E-02 9.407E-02 1.478E-01 6.454E-01 0.000E+00 0.000E+00 8.873E-01 7.932E-01 
3.500E-02 8.552E-02 1.484E-01 5.357E-01 0.000E+00 0.000E+00 7.696E-01 6.841E-01 
3.700E-02 7.808E-02 1.489E-01 4.490E-01 0.000E+00 0.000E+00 6.760E-01 5.980E-01 
3.900E-02 7.155E-02 1.493E-01 3.798E-01 0.000E+00 0.000E+00 6.007E-01 5.291E-01 
4.000E-02 6.859E-02 1.494E-01 3.504E-01 0.000E+00 0.000E+00 5.684E-01 4.998E-01 
4.100E-02 6.580E-02 1.495E-01 3.239E-01 0.000E+00 0.000E+00 5.392E-01 4.734E-01 
4.300E-02 6.070E-02 1.497E-01 2.783E-01 0.000E+00 0.000E+00 4.886E-01 4.279E-01 
4.500E-02 5.616E-02 1.497E-01 2.407E-01 0.000E+00 0.000E+00 4.466E-01 3.904E-01 
4.700E-02 5.210E-02 1.497E-01 2.094E-01 0.000E+00 0.000E+00 4.112E-01 3.591E-01 
4.900E-02 4.846E-02 1.496E-01 1.833E-01 0.000E+00 0.000E+00 3.814E-01 3.329E-01 
5.000E-02 4.678E-02 1.496E-01 1.718E-01 0.000E+00 0.000E+00 3.681E-01 3.214E-01 
5.100E-02 4.519E-02 1.495E-01 1.612E-01 0.000E+00 0.000E+00 3.559E-01 3.107E-01 
5.300E-02 4.223E-02 1.493E-01 1.425E-01 0.000E+00 0.000E+00 3.340E-01 2.918E-01 
5.500E-02 3.955E-02 1.491E-01 1.265E-01 0.000E+00 0.000E+00 3.151E-01 2.756E-01 
5.700E-02 3.711E-02 1.488E-01 1.128E-01 0.000E+00 0.000E+00 2.987E-01 2.616E-01 
5.900E-02 3.489E-02 1.485E-01 1.010E-01 0.000E+00 0.000E+00 2.843E-01 2.494E-01 
6.000E-02 3.386E-02 1.483E-01 9.564E-02 0.000E+00 0.000E+00 2.778E-01 2.440E-01 
6.100E-02 3.287E-02 1.481E-01 9.068E-02 0.000E+00 0.000E+00 2.717E-01 2.388E-01 
6.300E-02 3.101E-02 1.478E-01 8.174E-02 0.000E+00 0.000E+00 2.605E-01 2.295E-01 
6.500E-02 2.931E-02 1.474E-01 7.391E-02 0.000E+00 0.000E+00 2.506E-01 2.213E-01 
6.700E-02 2.774E-02 1.469E-01 6.704E-02 0.000E+00 0.000E+00 2.417E-01 2.140E-01 
6.900E-02 2.630E-02 1.465E-01 6.097E-02 0.000E+00 0.000E+00 2.338E-01 2.075E-01 
7.100E-02 2.496E-02 1.461E-01 5.561E-02 0.000E+00 0.000E+00 2.266E-01 2.017E-01 
7.300E-02 2.372E-02 1.456E-01 5.084E-02 0.000E+00 0.000E+00 2.202E-01 1.964E-01 
7.500E-02 2.258E-02 1.451E-01 4.659E-02 0.000E+00 0.000E+00 2.143E-01 1.917E-01 
7.700E-02 2.151E-02 1.446E-01 4.280E-02 0.000E+00 0.000E+00 2.089E-01 1.874E-01 
7.900E-02 2.052E-02 1.441E-01 3.940E-02 0.000E+00 0.000E+00 2.041E-01 1.835E-01 
8.000E-02 2.005E-02 1.439E-01 3.783E-02 0.000E+00 0.000E+00 2.018E-01 1.817E-01 
8.100E-02 1.959E-02 1.436E-01 3.634E-02 0.000E+00 0.000E+00 1.996E-01 1.800E-01 
8.300E-02 1.873E-02 1.431E-01 3.359E-02 0.000E+00 0.000E+00 1.955E-01 1.767E-01 
8.500E-02 1.792E-02 1.426E-01 3.110E-02 0.000E+00 0.000E+00 1.917E-01 1.737E-01 
8.700E-02 1.716E-02 1.421E-01 2.885E-02 0.000E+00 0.000E+00 1.881E-01 1.710E-01 
8.900E-02 1.645E-02 1.416E-01 2.681E-02 0.000E+00 0.000E+00 1.849E-01 1.684E-01 
9.100E-02 1.579E-02 1.411E-01 2.495E-02 0.000E+00 0.000E+00 1.818E-01 1.661E-01 
9.300E-02 1.516E-02 1.406E-01 2.326E-02 0.000E+00 0.000E+00 1.790E-01 1.638E-01 
9.500E-02 1.457E-02 1.401E-01 2.172E-02 0.000E+00 0.000E+00 1.764E-01 1.618E-01 
9.700E-02 1.401E-02 1.396E-01 2.030E-02 0.000E+00 0.000E+00 1.739E-01 1.599E-01 
9.900E-02 1.349E-02 1.390E-01 1.901E-02 0.000E+00 0.000E+00 1.715E-01 1.580E-01 
1.000E-01 1.324E-02 1.388E-01 1.840E-02 0.000E+00 0.000E+00 1.704E-01 1.572E-01 
1.010E-01 1.299E-02 1.385E-01 1.782E-02 0.000E+00 0.000E+00 1.693E-01 1.563E-01 
1.030E-01 1.252E-02 1.380E-01 1.673E-02 0.000E+00 0.000E+00 1.673E-01 1.547E-01 
1.050E-01 1.208E-02 1.375E-01 1.572E-02 0.000E+00 0.000E+00 1.653E-01 1.532E-01 
1.070E-01 1.165E-02 1.370E-01 1.479E-02 0.000E+00 0.000E+00 1.634E-01 1.518E-01 
1.090E-01 1.125E-02 1.365E-01 1.393E-02 0.000E+00 0.000E+00 1.617E-01 1.504E-01 
1.110E-01 1.087E-02 1.360E-01 1.314E-02 0.000E+00 0.000E+00 1.600E-01 1.491E-01 
1.130E-01 1.051E-02 1.355E-01 1.241E-02 0.000E+00 0.000E+00 1.584E-01 1.479E-01 
1.150E-01 1.017E-02 1.350E-01 1.172E-02 0.000E+00 0.000E+00 1.569E-01 1.467E-01 
1.170E-01 9.843E-03 1.345E-01 1.109E-02 0.000E+00 0.000E+00 1.554E-01 1.456E-01 
1.190E-01 9.532E-03 1.340E-01 1.050E-02 0.000E+00 0.000E+00 1.540E-01 1.445E-01 
1.210E-01 9.235E-03 1.335E-01 9.952E-03 0.000E+00 0.000E+00 1.527E-01 1.434E-01 
1.230E-01 8.951E-03 1.330E-01 9.440E-03 0.000E+00 0.000E+00 1.514E-01 1.424E-01 
1.250E-01 8.681E-03 1.325E-01 8.963E-03 0.000E+00 0.000E+00 1.502E-01 1.415E-01 
1.270E-01 8.422E-03 1.320E-01 8.517E-03 0.000E+00 0.000E+00 1.490E-01 1.405E-01 
1.290E-01 8.175E-03 1.316E-01 8.099E-03 0.000E+00 0.000E+00 1.478E-01 1.397E-01 
1.310E-01 7.938E-03 1.311E-01 7.709E-03 0.000E+00 0.000E+00 1.467E-01 1.388E-01 
1.330E-01 7.712E-03 1.306E-01 7.342E-03 0.000E+00 0.000E+00 1.457E-01 1.379E-01 
1.350E-01 7.494E-03 1.301E-01 6.999E-03 0.000E+00 0.000E+00 1.446E-01 1.371E-01 
1.370E-01 7.286E-03 1.297E-01 6.676E-03 0.000E+00 0.000E+00 1.436E-01 1.363E-01 
1.390E-01 7.087E-03 1.292E-01 6.373E-03 0.000E+00 0.000E+00 1.427E-01 1.356E-01 
1.410E-01 6.895E-03 1.287E-01 6.087E-03 0.000E+00 0.000E+00 1.417E-01 1.348E-01 
1.430E-01 6.711E-03 1.283E-01 5.819E-03 0.000E+00 0.000E+00 1.408E-01 1.341E-01 
1.450E-01 6.535E-03 1.278E-01 5.565E-03 0.000E+00 0.000E+00 1.399E-01 1.334E-01 
1.470E-01 6.365E-03 1.274E-01 5.326E-03 0.000E+00 0.000E+00 1.391E-01 1.327E-01 
1.490E-01 6.202E-03 1.270E-01 5.101E-03 0.000E+00 0.000E+00 1.383E-01 1.321E-01 
1.500E-01 6.122E-03 1.267E-01 4.993E-03 0.000E+00 0.000E+00 1.378E-01 1.317E-01 
1.510E-01 6.044E-03 1.265E-01 4.888E-03 0.000E+00 0.000E+00 1.374E-01 1.314E-01 
1.530E-01 5.893E-03 1.261E-01 4.686E-03 0.000E+00 0.000E+00 1.367E-01 1.308E-01 
1.550E-01 5.747E-03 1.256E-01 4.496E-03 0.000E+00 0.000E+00 1.359E-01 1.301E-01 
1.570E-01 5.607E-03 1.252E-01 4.315E-03 0.000E+00 0.000E+00 1.351E-01 1.295E-01 
1.590E-01 5.471E-03 1.248E-01 4.144E-03 0.000E+00 0.000E+00 1.344E-01 1.289E-01 
1.610E-01 5.341E-03 1.244E-01 3.982E-03 0.000E+00 0.000E+00 1.337E-01 1.283E-01 
1.630E-01 5.215E-03 1.239E-01 3.829E-03 0.000E+00 0.000E+00 1.330E-01 1.278E-01 
1.650E-01 5.093E-03 1.235E-01 3.683E-03 0.000E+00 0.000E+00 1.323E-01 1.272E-01 
1.670E-01 4.976E-03 1.231E-01 3.544E-03 0.000E+00 0.000E+00 1.316E-01 1.267E-01 
1.690E-01 4.862E-03 1.227E-01 3.412E-03 0.000E+00 0.000E+00 1.310E-01 1.261E-01 
1.710E-01 4.753E-03 1.223E-01 3.287E-03 0.000E+00 0.000E+00 1.303E-01 1.256E-01 
1.730E-01 4.647E-03 1.219E-01 3.168E-03 0.000E+00 0.000E+00 1.297E-01 1.251E-01 
1.750E-01 4.544E-03 1.215E-01 3.054E-03 0.000E+00 0.000E+00 1.291E-01 1.246E-01 
1.770E-01 4.445E-03 1.211E-01 2.946E-03 0.000E+00 0.000E+00 1.285E-01 1.241E-01 
1.790E-01 4.349E-03 1.207E-01 2.843E-03 0.000E+00 0.000E+00 1.279E-01 1.236E-01 
1.810E-01 4.256E-03 1.203E-01 2.744E-03 0.000E+00 0.000E+00 1.273E-01 1.231E-01 
1.830E-01 4.166E-03 1.199E-01 2.650E-03 0.000E+00 0.000E+00 1.268E-01 1.226E-01 
1.850E-01 4.079E-03 1.196E-01 2.561E-03 0.000E+00 0.000E+00 1.262E-01 1.221E-01 
1.870E-01 3.995E-03 1.192E-01 2.475E-03 0.000E+00 0.000E+00 1.257E-01 1.217E-01 
1.890E-01 3.913E-03 1.188E-01 2.393E-03 0.000E+00 0.000E+00 1.251E-01 1.212E-01 
1.910E-01 3.833E-03 1.184E-01 2.315E-03 0.000E+00 0.000E+00 1.246E-01 1.207E-01 
1.930E-01 3.756E-03 1.181E-01 2.240E-03 0.000E+00 0.000E+00 1.241E-01 1.203E-01 
1.950E-01 3.682E-03 1.177E-01 2.168E-03 0.000E+00 0.000E+00 1.235E-01 1.199E-01 
1.970E-01 3.609E-03 1.173E-01 2.100E-03 0.000E+00 0.000E+00 1.230E-01 1.194E-01 
1.990E-01 3.539E-03 1.170E-01 2.034E-03 0.000E+00 0.000E+00 1.225E-01 1.190E-01 
2.000E-01 3.504E-03 1.168E-01 2.002E-03 0.000E+00 0.000E+00 1.223E-01 1.188E-01 
3.000E-01 1.580E-03 1.021E-01 5.743E-04 0.000E+00 0.000E+00 1.042E-01 1.026E-01 
4.000E-01 8.934E-04 9.162E-02 2.480E-04 0.000E+00 0.000E+00 9.276E-02 9.187E-02 
5.000E-01 5.732E-04 8.374E-02 1.344E-04 0.000E+00 0.000E+00 8.445E-02 8.388E-02 
6.000E-01 3.986E-04 7.754E-02 8.401E-05 0.000E+00 0.000E+00 7.802E-02 7.762E-02 
8.000E-01 2.245E-04 6.814E-02 4.252E-05 0.000E+00 0.000E+00 6.841E-02 6.818E-02 
1.000E+00 1.438E-04 6.129E-02 2.643E-05 0.000E+00 0.000E+00 6.146E-02 6.132E-02 
1.022E+00 1.377E-04 6.064E-02 2.489E-05 0.000E+00 0.000E+00 6.080E-02 6.067E-02 
1.250E+00 9.207E-05 5.482E-02 1.688E-05 3.134E-05 0.000E+00 5.496E-02 5.486E-02 
1.500E+00 6.395E-05 4.982E-02 1.222E-05 1.708E-04 0.000E+00 5.006E-02 5.000E-02 
2.000E+00 3.598E-05 4.252E-02 7.633E-06 6.747E-04 0.000E+00 4.324E-02 4.320E-02 
2.044E+00 3.444E-05 4.201E-02 7.381E-06 7.272E-04 0.000E+00 4.277E-02 4.274E-02 
3.000E+00 1.599E-05 3.346E-02 4.223E-06 1.918E-03 1.171E-05 3.541E-02 3.539E-02 
4.000E+00 8.997E-06 2.790E-02 2.881E-06 3.102E-03 4.781E-05 3.106E-02 3.105E-02 
5.000E+00 5.758E-06 2.411E-02 2.175E-06 4.154E-03 9.524E-05 2.836E-02 2.836E-02 
6.000E+00 4.000E-06 2.130E-02 1.744E-06 5.098E-03 1.463E-04 2.655E-02 2.655E-02 
7.000E+00 2.937E-06 1.915E-02 1.453E-06 5.937E-03 1.972E-04 2.529E-02 2.528E-02 
8.000E+00 2.250E-06 1.743E-02 1.245E-06 6.694E-03 2.466E-04 2.437E-02 2.437E-02 
9.000E+00 1.777E-06 1.602E-02 1.088E-06 7.377E-03 2.942E-04 2.369E-02 2.369E-02 
1.000E+01 1.440E-06 1.484E-02 9.664E-07 7.999E-03 3.393E-04 2.318E-02 2.318E-02 
1.100E+01 1.190E-06 1.384E-02 8.691E-07 8.564E-03 3.821E-04 2.279E-02 2.279E-02 
1.200E+01 9.997E-07 1.298E-02 7.894E-07 9.082E-03 4.225E-04 2.249E-02 2.249E-02 
1.300E+01 8.519E-07 1.223E-02 7.229E-07 9.562E-03 4.609E-04 2.226E-02 2.225E-02 
1.400E+01 7.345E-07 1.157E-02 6.669E-07 1.001E-02 4.973E-04 2.208E-02 2.208E-02 
1.500E+01 6.399E-07 1.099E-02 6.187E-07 1.043E-02 5.319E-04 2.195E-02 2.195E-02 
1.600E+01 5.625E-07 1.046E-02 5.772E-07 1.082E-02 5.649E-04 2.185E-02 2.184E-02 
1.800E+01 4.444E-07 9.562E-03 5.087E-07 1.154E-02 6.263E-04 2.173E-02 2.173E-02 
2.000E+01 3.600E-07 8.818E-03 4.546E-07 1.218E-02 6.823E-04 2.168E-02 2.168E-02 
2.200E+01 2.975E-07 8.189E-03 4.109E-07 1.276E-02 7.339E-04 2.168E-02 2.168E-02 
2.400E+01 2.500E-07 7.653E-03 3.750E-07 1.329E-02 7.814E-04 2.172E-02 2.172E-02 
2.600E+01 2.130E-07 7.187E-03 3.446E-07 1.377E-02 8.256E-04 2.179E-02 2.179E-02 
2.800E+01 1.836E-07 6.778E-03 3.189E-07 1.422E-02 8.667E-04 2.187E-02 2.187E-02 
3.000E+01 1.600E-07 6.419E-03 2.968E-07 1.463E-02 9.053E-04 2.196E-02 2.196E-02 
4.000E+01 8.997E-08 5.100E-03 2.203E-07 1.634E-02 1.066E-03 2.251E-02 2.251E-02 
5.000E+01 5.758E-08 4.259E-03 1.751E-07 1.761E-02 1.191E-03 2.306E-02 2.306E-02 
6.000E+01 4.000E-08 3.669E-03 1.453E-07 1.862E-02 1.292E-03 2.358E-02 2.358E-02 
8.000E+01 2.250E-08 2.893E-03 1.084E-07 2.013E-02 1.446E-03 2.447E-02 2.447E-02 
1.000E+02 1.439E-08 2.402E-03 8.644E-08 2.121E-02 1.561E-03 2.517E-02 2.517E-02 
1.500E+02 6.397E-09 1.710E-03 5.738E-08 2.294E-02 1.755E-03 2.641E-02 2.641E-02 
2.000E+02 3.598E-09 1.341E-03 4.294E-08 2.402E-02 1.881E-03 2.724E-02 2.724E-02 
3.000E+02 1.599E-09 9.504E-04 2.857E-08 2.527E-02 2.039E-03 2.825E-02 2.825E-02 
4.000E+02 8.997E-10 7.444E-04 2.140E-08 2.600E-02 2.136E-03 2.888E-02 2.888E-02 
5.000E+02 5.758E-10 6.162E-04 1.711E-08 2.649E-02 2.205E-03 2.931E-02 2.931E-02 
6.000E+02 3.997E-10 5.276E-04 1.425E-08 2.683E-02 2.256E-03 2.961E-02 2.961E-02 
8.000E+02 2.250E-10 4.120E-04 1.068E-08 2.730E-02 2.328E-03 3.004E-02 3.004E-02 
1.000E+03 1.439E-10 3.390E-04 8.544E-09 2.761E-02 2.375E-03 3.032E-02 3.032E-02 
1.500E+03 6.397E-11 2.368E-04 5.694E-09 2.806E-02 2.448E-03 3.074E-02 3.074E-02 
2.000E+03 3.598E-11 1.832E-04 4.270E-09 2.830E-02 2.491E-03 3.098E-02 3.098E-02 
3.000E+03 1.599E-11 1.274E-04 2.846E-09 2.857E-02 2.538E-03 3.123E-02 3.123E-02 
4.000E+03 8.997E-12 9.834E-05 2.134E-09 2.873E-02 2.565E-03 3.139E-02 3.139E-02 
5.000E+03 5.758E-12 8.039E-05 1.707E-09 2.881E-02 2.582E-03 3.148E-02 3.148E-02 
6.000E+03 3.997E-12 6.819E-05 1.423E-09 2.888E-02 2.594E-03 3.154E-02 3.154E-02 
8.000E+03 2.250E-12 5.252E-05 1.067E-09 2.895E-02 2.609E-03 3.161E-02 3.161E-02 
1.000E+04 1.439E-12 4.288E-05 8.535E-10 2.902E-02 2.620E-03 3.168E-02 3.168E-02 
1.500E+04 6.397E-13 2.964E-05 5.689E-10 2.908E-02 2.634E-03 3.175E-02 3.175E-02 
2.000E+04 3.598E-13 2.279E-05 4.267E-10 2.913E-02 2.643E-03 3.179E-02 3.179E-02 
3.000E+04 1.599E-13 1.572E-05 2.846E-10 2.915E-02 2.652E-03 3.182E-02 3.182E-02 
4.000E+04 8.997E-14 1.206E-05 2.134E-10 2.917E-02 2.656E-03 3.184E-02 3.184E-02 
5.000E+04 5.758E-14 9.825E-06 1.707E-10 2.919E-02 2.658E-03 3.186E-02 3.186E-02 
6.000E+04 3.997E-14 8.305E-06 1.422E-10 2.919E-02 2.660E-03 3.186E-02 3.186E-02 
8.000E+04 2.250E-14 6.368E-06 1.067E-10 2.922E-02 2.663E-03 3.189E-02 3.189E-02 
1.000E+05 1.439E-14 5.180E-06 8.533E-11 2.922E-02 2.665E-03 3.189E-02 3.189E-02 