Photon    Coherent Incoher. Photoel. Nuclear  Electron Tot. w/  Tot. wo/ 
Energy    Scatter. Scatter. Absorb.  Pr. Prd. Pr. Prd. Coherent Coherent 

1.000E-03 1.155E+00 1.435E-02 2.792E+03 0.000E+00 0.000E+00 2.794E+03 2.792E+03 
1.500E-03 1.044E+00 2.863E-02 9.143E+02 0.000E+00 0.000E+00 9.153E+02 9.143E+02 
2.000E-03 9.226E-01 4.418E-02 4.027E+02 0.000E+00 0.000E+00 4.037E+02 4.028E+02 
2.500E-03 8.055E-01 5.927E-02 2.104E+02 0.000E+00 0.000E+00 2.112E+02 2.104E+02 
3.000E-03 7.012E-01 7.309E-02 1.228E+02 0.000E+00 0.000E+00 1.236E+02 1.229E+02 
4.000E-03 5.355E-01 9.586E-02 5.184E+01 0.000E+00 0.000E+00 5.247E+01 5.194E+01 
5.000E-03 4.196E-01 1.126E-01 2.628E+01 0.000E+00 0.000E+00 2.681E+01 2.639E+01 
5.500E-03 3.758E-01 1.191E-01 1.961E+01 0.000E+00 0.000E+00 2.010E+01 1.973E+01 
6.000E-03 3.390E-01 1.248E-01 1.499E+01 0.000E+00 0.000E+00 1.545E+01 1.511E+01 
7.000E-03 2.814E-01 1.339E-01 9.284E+00 0.000E+00 0.000E+00 9.699E+00 9.418E+00 
8.000E-03 2.389E-01 1.410E-01 6.114E+00 0.000E+00 0.000E+00 6.494E+00 6.255E+00 
8.500E-03 2.217E-01 1.439E-01 5.053E+00 0.000E+00 0.000E+00 5.419E+00 5.197E+00 
1.000E-02 1.812E-01 1.513E-01 3.025E+00 0.000E+00 0.000E+00 3.357E+00 3.176E+00 
1.150E-02 1.519E-01 1.570E-01 1.940E+00 0.000E+00 0.000E+00 2.249E+00 2.097E+00 
1.300E-02 1.297E-01 1.616E-01 1.311E+00 0.000E+00 0.000E+00 1.602E+00 1.473E+00 
1.450E-02 1.122E-01 1.653E-01 9.233E-01 0.000E+00 0.000E+00 1.201E+00 1.089E+00 
1.500E-02 1.071E-01 1.664E-01 8.278E-01 0.000E+00 0.000E+00 1.101E+00 9.943E-01 
1.600E-02 9.802E-02 1.684E-01 6.723E-01 0.000E+00 0.000E+00 9.387E-01 8.407E-01 
1.750E-02 8.637E-02 1.709E-01 5.032E-01 0.000E+00 0.000E+00 7.605E-01 6.741E-01 
1.900E-02 7.663E-02 1.730E-01 3.855E-01 0.000E+00 0.000E+00 6.351E-01 5.584E-01 
2.000E-02 7.100E-02 1.741E-01 3.263E-01 0.000E+00 0.000E+00 5.714E-01 5.004E-01 
2.050E-02 6.840E-02 1.746E-01 3.011E-01 0.000E+00 0.000E+00 5.442E-01 4.758E-01 
2.200E-02 6.139E-02 1.760E-01 2.393E-01 0.000E+00 0.000E+00 4.766E-01 4.152E-01 
2.350E-02 5.538E-02 1.770E-01 1.929E-01 0.000E+00 0.000E+00 4.253E-01 3.700E-01 
2.500E-02 5.018E-02 1.779E-01 1.576E-01 0.000E+00 0.000E+00 3.856E-01 3.355E-01 
2.650E-02 4.566E-02 1.785E-01 1.302E-01 0.000E+00 0.000E+00 3.544E-01 3.087E-01 
2.800E-02 4.172E-02 1.789E-01 1.087E-01 0.000E+00 0.000E+00 3.294E-01 2.877E-01 
2.950E-02 3.826E-02 1.792E-01 9.160E-02 0.000E+00 0.000E+00 3.091E-01 2.708E-01 
3.000E-02 3.720E-02 1.793E-01 8.668E-02 0.000E+00 0.000E+00 3.032E-01 2.660E-01 
3.100E-02 3.520E-02 1.794E-01 7.783E-02 0.000E+00 0.000E+00 2.925E-01 2.573E-01 
3.250E-02 3.249E-02 1.795E-01 6.662E-02 0.000E+00 0.000E+00 2.786E-01 2.461E-01 
3.400E-02 3.008E-02 1.795E-01 5.742E-02 0.000E+00 0.000E+00 2.670E-01 2.369E-01 
3.550E-02 2.793E-02 1.794E-01 4.981E-02 0.000E+00 0.000E+00 2.571E-01 2.292E-01 
3.700E-02 2.599E-02 1.792E-01 4.346E-02 0.000E+00 0.000E+00 2.487E-01 2.227E-01 
3.850E-02 2.425E-02 1.790E-01 3.811E-02 0.000E+00 0.000E+00 2.414E-01 2.171E-01 
4.000E-02 2.268E-02 1.788E-01 3.360E-02 0.000E+00 0.000E+00 2.350E-01 2.123E-01 
4.150E-02 2.126E-02 1.784E-01 2.975E-02 0.000E+00 0.000E+00 2.294E-01 2.082E-01 
4.300E-02 1.996E-02 1.781E-01 2.645E-02 0.000E+00 0.000E+00 2.245E-01 2.045E-01 
4.450E-02 1.878E-02 1.777E-01 2.362E-02 0.000E+00 0.000E+00 2.201E-01 2.013E-01 
4.600E-02 1.770E-02 1.773E-01 2.117E-02 0.000E+00 0.000E+00 2.162E-01 1.985E-01 
4.750E-02 1.671E-02 1.769E-01 1.903E-02 0.000E+00 0.000E+00 2.126E-01 1.959E-01 
4.900E-02 1.580E-02 1.764E-01 1.717E-02 0.000E+00 0.000E+00 2.094E-01 1.936E-01 
5.000E-02 1.523E-02 1.761E-01 1.606E-02 0.000E+00 0.000E+00 2.074E-01 1.922E-01 
5.050E-02 1.496E-02 1.759E-01 1.554E-02 0.000E+00 0.000E+00 2.064E-01 1.915E-01 
5.200E-02 1.419E-02 1.755E-01 1.410E-02 0.000E+00 0.000E+00 2.038E-01 1.896E-01 
5.350E-02 1.348E-02 1.750E-01 1.283E-02 0.000E+00 0.000E+00 2.013E-01 1.878E-01 
5.500E-02 1.281E-02 1.745E-01 1.171E-02 0.000E+00 0.000E+00 1.990E-01 1.862E-01 
5.650E-02 1.220E-02 1.739E-01 1.071E-02 0.000E+00 0.000E+00 1.968E-01 1.846E-01 
5.800E-02 1.163E-02 1.734E-01 9.818E-03 0.000E+00 0.000E+00 1.948E-01 1.832E-01 
5.950E-02 1.109E-02 1.729E-01 9.020E-03 0.000E+00 0.000E+00 1.930E-01 1.819E-01 
6.000E-02 1.092E-02 1.727E-01 8.773E-03 0.000E+00 0.000E+00 1.924E-01 1.815E-01 
6.100E-02 1.059E-02 1.723E-01 8.305E-03 0.000E+00 0.000E+00 1.912E-01 1.806E-01 
6.250E-02 1.013E-02 1.718E-01 7.662E-03 0.000E+00 0.000E+00 1.896E-01 1.794E-01 
6.400E-02 9.694E-03 1.712E-01 7.082E-03 0.000E+00 0.000E+00 1.880E-01 1.783E-01 
6.550E-02 9.286E-03 1.707E-01 6.558E-03 0.000E+00 0.000E+00 1.865E-01 1.772E-01 
6.700E-02 8.903E-03 1.701E-01 6.084E-03 0.000E+00 0.000E+00 1.851E-01 1.762E-01 
6.850E-02 8.543E-03 1.696E-01 5.653E-03 0.000E+00 0.000E+00 1.838E-01 1.752E-01 
7.000E-02 8.204E-03 1.690E-01 5.261E-03 0.000E+00 0.000E+00 1.825E-01 1.743E-01 
7.150E-02 7.885E-03 1.685E-01 4.903E-03 0.000E+00 0.000E+00 1.813E-01 1.734E-01 
7.300E-02 7.584E-03 1.679E-01 4.577E-03 0.000E+00 0.000E+00 1.801E-01 1.725E-01 
7.450E-02 7.299E-03 1.674E-01 4.278E-03 0.000E+00 0.000E+00 1.790E-01 1.717E-01 
7.600E-02 7.030E-03 1.668E-01 4.004E-03 0.000E+00 0.000E+00 1.779E-01 1.708E-01 
7.750E-02 6.776E-03 1.663E-01 3.753E-03 0.000E+00 0.000E+00 1.768E-01 1.700E-01 
7.900E-02 6.535E-03 1.657E-01 3.522E-03 0.000E+00 0.000E+00 1.758E-01 1.692E-01 
8.000E-02 6.381E-03 1.654E-01 3.378E-03 0.000E+00 0.000E+00 1.751E-01 1.687E-01 
8.050E-02 6.306E-03 1.652E-01 3.309E-03 0.000E+00 0.000E+00 1.748E-01 1.685E-01 
8.200E-02 6.089E-03 1.646E-01 3.112E-03 0.000E+00 0.000E+00 1.738E-01 1.677E-01 
8.350E-02 5.883E-03 1.641E-01 2.931E-03 0.000E+00 0.000E+00 1.729E-01 1.670E-01 
8.500E-02 5.688E-03 1.635E-01 2.763E-03 0.000E+00 0.000E+00 1.720E-01 1.663E-01 
8.650E-02 5.501E-03 1.630E-01 2.607E-03 0.000E+00 0.000E+00 1.711E-01 1.656E-01 
8.800E-02 5.324E-03 1.625E-01 2.463E-03 0.000E+00 0.000E+00 1.703E-01 1.649E-01 
8.950E-02 5.155E-03 1.619E-01 2.329E-03 0.000E+00 0.000E+00 1.694E-01 1.643E-01 
9.100E-02 4.994E-03 1.614E-01 2.204E-03 0.000E+00 0.000E+00 1.686E-01 1.636E-01 
9.250E-02 4.840E-03 1.609E-01 2.088E-03 0.000E+00 0.000E+00 1.678E-01 1.630E-01 
9.400E-02 4.693E-03 1.604E-01 1.979E-03 0.000E+00 0.000E+00 1.670E-01 1.623E-01 
9.550E-02 4.553E-03 1.598E-01 1.878E-03 0.000E+00 0.000E+00 1.663E-01 1.617E-01 
9.700E-02 4.419E-03 1.593E-01 1.784E-03 0.000E+00 0.000E+00 1.655E-01 1.611E-01 
9.850E-02 4.290E-03 1.588E-01 1.696E-03 0.000E+00 0.000E+00 1.648E-01 1.605E-01 
1.000E-01 4.167E-03 1.583E-01 1.613E-03 0.000E+00 0.000E+00 1.641E-01 1.599E-01 
1.015E-01 4.049E-03 1.578E-01 1.535E-03 0.000E+00 0.000E+00 1.634E-01 1.593E-01 
1.030E-01 3.937E-03 1.573E-01 1.463E-03 0.000E+00 0.000E+00 1.627E-01 1.588E-01 
1.045E-01 3.828E-03 1.568E-01 1.395E-03 0.000E+00 0.000E+00 1.620E-01 1.582E-01 
1.060E-01 3.725E-03 1.563E-01 1.330E-03 0.000E+00 0.000E+00 1.614E-01 1.576E-01 
1.075E-01 3.625E-03 1.558E-01 1.270E-03 0.000E+00 0.000E+00 1.607E-01 1.571E-01 
1.090E-01 3.529E-03 1.553E-01 1.213E-03 0.000E+00 0.000E+00 1.601E-01 1.565E-01 
1.105E-01 3.437E-03 1.548E-01 1.160E-03 0.000E+00 0.000E+00 1.594E-01 1.560E-01 
1.120E-01 3.348E-03 1.544E-01 1.109E-03 0.000E+00 0.000E+00 1.588E-01 1.555E-01 
1.135E-01 3.263E-03 1.539E-01 1.062E-03 0.000E+00 0.000E+00 1.582E-01 1.549E-01 
1.150E-01 3.181E-03 1.534E-01 1.017E-03 0.000E+00 0.000E+00 1.576E-01 1.544E-01 
1.165E-01 3.102E-03 1.529E-01 9.743E-04 0.000E+00 0.000E+00 1.570E-01 1.539E-01 
1.180E-01 3.026E-03 1.525E-01 9.341E-04 0.000E+00 0.000E+00 1.564E-01 1.534E-01 
1.195E-01 2.953E-03 1.520E-01 8.960E-04 0.000E+00 0.000E+00 1.559E-01 1.529E-01 
1.210E-01 2.882E-03 1.515E-01 8.600E-04 0.000E+00 0.000E+00 1.553E-01 1.524E-01 
1.225E-01 2.814E-03 1.511E-01 8.258E-04 0.000E+00 0.000E+00 1.547E-01 1.519E-01 
1.240E-01 2.748E-03 1.506E-01 7.934E-04 0.000E+00 0.000E+00 1.542E-01 1.514E-01 
1.255E-01 2.684E-03 1.502E-01 7.627E-04 0.000E+00 0.000E+00 1.536E-01 1.510E-01 
1.270E-01 2.623E-03 1.497E-01 7.335E-04 0.000E+00 0.000E+00 1.531E-01 1.505E-01 
1.285E-01 2.564E-03 1.493E-01 7.058E-04 0.000E+00 0.000E+00 1.526E-01 1.500E-01 
1.300E-01 2.506E-03 1.489E-01 6.794E-04 0.000E+00 0.000E+00 1.520E-01 1.495E-01 
1.315E-01 2.451E-03 1.484E-01 6.543E-04 0.000E+00 0.000E+00 1.515E-01 1.491E-01 
1.330E-01 2.397E-03 1.480E-01 6.304E-04 0.000E+00 0.000E+00 1.510E-01 1.486E-01 
1.345E-01 2.345E-03 1.476E-01 6.076E-04 0.000E+00 0.000E+00 1.505E-01 1.482E-01 
1.360E-01 2.295E-03 1.471E-01 5.859E-04 0.000E+00 0.000E+00 1.500E-01 1.477E-01 
1.375E-01 2.246E-03 1.467E-01 5.653E-04 0.000E+00 0.000E+00 1.495E-01 1.473E-01 
1.390E-01 2.199E-03 1.463E-01 5.455E-04 0.000E+00 0.000E+00 1.490E-01 1.468E-01 
1.405E-01 2.153E-03 1.459E-01 5.267E-04 0.000E+00 0.000E+00 1.486E-01 1.464E-01 
1.420E-01 2.109E-03 1.455E-01 5.087E-04 0.000E+00 0.000E+00 1.481E-01 1.460E-01 
1.435E-01 2.066E-03 1.451E-01 4.915E-04 0.000E+00 0.000E+00 1.476E-01 1.455E-01 
1.450E-01 2.024E-03 1.446E-01 4.751E-04 0.000E+00 0.000E+00 1.471E-01 1.451E-01 
1.465E-01 1.984E-03 1.442E-01 4.594E-04 0.000E+00 0.000E+00 1.467E-01 1.447E-01 
1.480E-01 1.945E-03 1.438E-01 4.444E-04 0.000E+00 0.000E+00 1.462E-01 1.443E-01 
1.495E-01 1.907E-03 1.434E-01 4.300E-04 0.000E+00 0.000E+00 1.458E-01 1.439E-01 
1.500E-01 1.894E-03 1.433E-01 4.253E-04 0.000E+00 0.000E+00 1.456E-01 1.437E-01 
2.000E-01 1.075E-03 1.316E-01 1.677E-04 0.000E+00 0.000E+00 1.328E-01 1.318E-01 
3.000E-01 4.807E-04 1.146E-01 4.724E-05 0.000E+00 0.000E+00 1.152E-01 1.147E-01 
4.000E-01 2.710E-04 1.028E-01 2.020E-05 0.000E+00 0.000E+00 1.031E-01 1.028E-01 
5.000E-01 1.736E-04 9.392E-02 1.088E-05 0.000E+00 0.000E+00 9.410E-02 9.393E-02 
6.000E-01 1.206E-04 8.688E-02 6.773E-06 0.000E+00 0.000E+00 8.701E-02 8.689E-02 
8.000E-01 6.790E-05 7.634E-02 3.417E-06 0.000E+00 0.000E+00 7.641E-02 7.634E-02 
1.000E+00 4.346E-05 6.865E-02 2.124E-06 0.000E+00 0.000E+00 6.870E-02 6.865E-02 
1.022E+00 4.162E-05 6.794E-02 1.972E-06 0.000E+00 0.000E+00 6.798E-02 6.794E-02 
1.250E+00 2.783E-05 6.139E-02 1.339E-06 1.521E-05 0.000E+00 6.143E-02 6.141E-02 
1.500E+00 1.932E-05 5.580E-02 9.717E-07 8.434E-05 0.000E+00 5.591E-02 5.589E-02 
2.000E+00 1.087E-05 4.762E-02 6.120E-07 3.360E-04 0.000E+00 4.796E-02 4.795E-02 
2.044E+00 1.041E-05 4.703E-02 5.920E-07 3.622E-04 0.000E+00 4.740E-02 4.739E-02 
3.000E+00 4.832E-06 3.746E-02 3.425E-07 9.616E-04 1.311E-05 3.844E-02 3.843E-02 
4.000E+00 2.718E-06 3.125E-02 2.353E-07 1.561E-03 5.351E-05 3.286E-02 3.286E-02 
5.000E+00 1.739E-06 2.699E-02 1.785E-07 2.094E-03 1.066E-04 2.919E-02 2.919E-02 
6.000E+00 1.208E-06 2.385E-02 1.436E-07 2.574E-03 1.638E-04 2.659E-02 2.659E-02 
7.000E+00 8.873E-07 2.144E-02 1.200E-07 3.001E-03 2.208E-04 2.466E-02 2.466E-02 
8.000E+00 6.795E-07 1.951E-02 1.030E-07 3.386E-03 2.762E-04 2.317E-02 2.317E-02 
9.000E+00 5.369E-07 1.793E-02 9.021E-08 3.737E-03 3.293E-04 2.200E-02 2.200E-02 
1.000E+01 4.349E-07 1.662E-02 8.023E-08 4.054E-03 3.799E-04 2.105E-02 2.105E-02 
1.100E+01 3.594E-07 1.550E-02 7.221E-08 4.343E-03 4.280E-04 2.027E-02 2.027E-02 
1.200E+01 3.020E-07 1.454E-02 6.565E-08 4.609E-03 4.734E-04 1.962E-02 1.962E-02 
1.300E+01 2.573E-07 1.369E-02 6.017E-08 4.856E-03 5.164E-04 1.906E-02 1.906E-02 
1.400E+01 2.219E-07 1.295E-02 5.554E-08 5.086E-03 5.575E-04 1.860E-02 1.860E-02 
1.500E+01 1.933E-07 1.230E-02 5.157E-08 5.300E-03 5.964E-04 1.820E-02 1.820E-02 
1.600E+01 1.699E-07 1.171E-02 4.813E-08 5.504E-03 6.334E-04 1.785E-02 1.785E-02 
1.800E+01 1.342E-07 1.070E-02 4.246E-08 5.874E-03 7.026E-04 1.728E-02 1.728E-02 
2.000E+01 1.087E-07 9.870E-03 3.798E-08 6.205E-03 7.659E-04 1.684E-02 1.684E-02 
2.200E+01 8.986E-08 9.170E-03 3.435E-08 6.509E-03 8.243E-04 1.650E-02 1.650E-02 
2.400E+01 7.549E-08 8.569E-03 3.136E-08 6.784E-03 8.783E-04 1.623E-02 1.623E-02 
2.600E+01 6.434E-08 8.044E-03 2.884E-08 7.036E-03 9.283E-04 1.601E-02 1.601E-02 
2.800E+01 5.546E-08 7.589E-03 2.669E-08 7.268E-03 9.753E-04 1.583E-02 1.583E-02 
3.000E+01 4.832E-08 7.185E-03 2.485E-08 7.484E-03 1.019E-03 1.569E-02 1.569E-02 
4.000E+01 2.718E-08 5.710E-03 1.847E-08 8.366E-03 1.204E-03 1.528E-02 1.528E-02 
5.000E+01 1.739E-08 4.767E-03 1.469E-08 9.034E-03 1.348E-03 1.515E-02 1.515E-02 
6.000E+01 1.208E-08 4.106E-03 1.219E-08 9.565E-03 1.465E-03 1.514E-02 1.514E-02 
8.000E+01 6.795E-09 3.239E-03 9.105E-09 1.037E-02 1.647E-03 1.525E-02 1.525E-02 
1.000E+02 4.348E-09 2.688E-03 7.262E-09 1.096E-02 1.785E-03 1.543E-02 1.543E-02 
1.500E+02 1.932E-09 1.914E-03 4.822E-09 1.195E-02 2.026E-03 1.589E-02 1.589E-02 
2.000E+02 1.087E-09 1.501E-03 3.611E-09 1.256E-02 2.185E-03 1.625E-02 1.625E-02 
3.000E+02 4.831E-10 1.064E-03 2.402E-09 1.331E-02 2.391E-03 1.676E-02 1.676E-02 
4.000E+02 2.718E-10 8.331E-04 1.800E-09 1.375E-02 2.520E-03 1.710E-02 1.710E-02 
5.000E+02 1.739E-10 6.897E-04 1.439E-09 1.404E-02 2.610E-03 1.734E-02 1.734E-02 
6.000E+02 1.208E-10 5.906E-04 1.199E-09 1.426E-02 2.678E-03 1.753E-02 1.753E-02 
8.000E+02 6.795E-11 4.612E-04 8.986E-10 1.454E-02 2.772E-03 1.778E-02 1.778E-02 
1.000E+03 4.348E-11 3.794E-04 7.187E-10 1.473E-02 2.836E-03 1.795E-02 1.795E-02 
1.500E+03 1.932E-11 2.650E-04 4.790E-10 1.501E-02 2.933E-03 1.821E-02 1.821E-02 
2.000E+03 1.087E-11 2.051E-04 3.592E-10 1.516E-02 2.988E-03 1.836E-02 1.836E-02 
3.000E+03 4.831E-12 1.426E-04 2.394E-10 1.533E-02 3.049E-03 1.852E-02 1.852E-02 
4.000E+03 2.718E-12 1.101E-04 1.795E-10 1.542E-02 3.084E-03 1.861E-02 1.861E-02 
5.000E+03 1.739E-12 9.002E-05 1.436E-10 1.547E-02 3.107E-03 1.867E-02 1.867E-02 
6.000E+03 1.208E-12 7.633E-05 1.197E-10 1.551E-02 3.123E-03 1.871E-02 1.871E-02 
8.000E+03 6.795E-13 5.879E-05 8.975E-11 1.557E-02 3.143E-03 1.877E-02 1.877E-02 
1.000E+04 4.348E-13 4.800E-05 7.180E-11 1.560E-02 3.157E-03 1.880E-02 1.880E-02 
1.500E+04 1.932E-13 3.318E-05 4.786E-11 1.564E-02 3.175E-03 1.885E-02 1.885E-02 
2.000E+04 1.087E-13 2.551E-05 3.590E-11 1.567E-02 3.185E-03 1.888E-02 1.888E-02 
3.000E+04 4.831E-14 1.759E-05 2.394E-11 1.569E-02 3.195E-03 1.891E-02 1.891E-02 
4.000E+04 2.718E-14 1.351E-05 1.795E-11 1.571E-02 3.202E-03 1.892E-02 1.892E-02 
5.000E+04 1.739E-14 1.100E-05 1.436E-11 1.571E-02 3.205E-03 1.893E-02 1.893E-02 
6.000E+04 1.208E-14 9.296E-06 1.197E-11 1.572E-02 3.208E-03 1.894E-02 1.894E-02 
8.000E+04 6.795E-15 7.130E-06 8.975E-12 1.573E-02 3.211E-03 1.895E-02 1.895E-02 
1.000E+05 4.348E-15 5.798E-06 7.180E-12 1.573E-02 3.213E-03 1.895E-02 1.895E-02 