Photon    Coherent Incoher. Photoel. Nuclear  Electron Tot. w/  Tot. wo/ 
Energy    Scatter. Scatter. Absorb.  Pr. Prd. Pr. Prd. Coherent Coherent 

1.000E-03 7.946E+00 5.041E-03 7.919E+03 0.000E+00 0.000E+00 7.927E+03 7.919E+03 
1.006E-03 7.942E+00 5.089E-03 7.817E+03 0.000E+00 0.000E+00 7.825E+03 7.817E+03 
1.006E-03 7.942E+00 5.089E-03 8.005E+03 0.000E+00 0.000E+00 8.013E+03 8.005E+03 
1.500E-03 7.527E+00 9.294E-03 3.283E+03 0.000E+00 0.000E+00 3.291E+03 3.283E+03 
2.000E-03 7.063E+00 1.353E-02 1.657E+03 0.000E+00 0.000E+00 1.664E+03 1.657E+03 
3.000E-03 6.155E+00 2.151E-02 6.085E+02 0.000E+00 0.000E+00 6.146E+02 6.085E+02 
3.537E-03 5.709E+00 2.546E-02 4.003E+02 0.000E+00 0.000E+00 4.060E+02 4.003E+02 
3.537E-03 5.709E+00 2.546E-02 7.724E+02 0.000E+00 0.000E+00 7.782E+02 7.725E+02 
3.631E-03 5.635E+00 2.612E-02 7.239E+02 0.000E+00 0.000E+00 7.296E+02 7.240E+02 
3.727E-03 5.561E+00 2.679E-02 6.782E+02 0.000E+00 0.000E+00 6.838E+02 6.783E+02 
3.727E-03 5.561E+00 2.679E-02 8.544E+02 0.000E+00 0.000E+00 8.600E+02 8.544E+02 
4.000E-03 5.352E+00 2.866E-02 7.176E+02 0.000E+00 0.000E+00 7.230E+02 7.177E+02 
4.018E-03 5.338E+00 2.878E-02 7.096E+02 0.000E+00 0.000E+00 7.150E+02 7.097E+02 
4.018E-03 5.338E+00 2.878E-02 7.892E+02 0.000E+00 0.000E+00 7.945E+02 7.892E+02 
4.177E-03 5.222E+00 2.983E-02 7.158E+02 0.000E+00 0.000E+00 7.211E+02 7.159E+02 
4.341E-03 5.105E+00 3.091E-02 6.493E+02 0.000E+00 0.000E+00 6.544E+02 6.493E+02 
4.341E-03 5.105E+00 3.091E-02 9.259E+02 0.000E+00 0.000E+00 9.311E+02 9.260E+02 
4.475E-03 5.013E+00 3.177E-02 8.646E+02 0.000E+00 0.000E+00 8.697E+02 8.646E+02 
4.612E-03 4.921E+00 3.264E-02 8.074E+02 0.000E+00 0.000E+00 8.123E+02 8.074E+02 
4.612E-03 4.921E+00 3.264E-02 9.376E+02 0.000E+00 0.000E+00 9.426E+02 9.376E+02 
4.773E-03 4.814E+00 3.365E-02 8.633E+02 0.000E+00 0.000E+00 8.682E+02 8.634E+02 
4.939E-03 4.707E+00 3.468E-02 7.950E+02 0.000E+00 0.000E+00 7.997E+02 7.950E+02 
4.939E-03 4.707E+00 3.468E-02 8.605E+02 0.000E+00 0.000E+00 8.652E+02 8.605E+02 
5.000E-03 4.669E+00 3.505E-02 8.345E+02 0.000E+00 0.000E+00 8.392E+02 8.346E+02 
6.000E-03 4.097E+00 4.085E-02 5.244E+02 0.000E+00 0.000E+00 5.286E+02 5.245E+02 
7.000E-03 3.621E+00 4.622E-02 3.495E+02 0.000E+00 0.000E+00 3.532E+02 3.495E+02 
8.000E-03 3.226E+00 5.121E-02 2.459E+02 0.000E+00 0.000E+00 2.492E+02 2.460E+02 
9.000E-03 2.898E+00 5.582E-02 1.795E+02 0.000E+00 0.000E+00 1.824E+02 1.795E+02 
1.000E-02 2.624E+00 6.007E-02 1.354E+02 0.000E+00 0.000E+00 1.381E+02 1.355E+02 
1.100E-02 2.391E+00 6.395E-02 1.044E+02 0.000E+00 0.000E+00 1.068E+02 1.044E+02 
1.300E-02 2.018E+00 7.076E-02 6.615E+01 0.000E+00 0.000E+00 6.824E+01 6.622E+01 
1.500E-02 1.726E+00 7.645E-02 4.476E+01 0.000E+00 0.000E+00 4.656E+01 4.484E+01 
1.700E-02 1.491E+00 8.123E-02 3.162E+01 0.000E+00 0.000E+00 3.319E+01 3.170E+01 
1.900E-02 1.298E+00 8.530E-02 2.322E+01 0.000E+00 0.000E+00 2.460E+01 2.331E+01 
2.000E-02 1.214E+00 8.712E-02 2.014E+01 0.000E+00 0.000E+00 2.144E+01 2.023E+01 
2.100E-02 1.138E+00 8.881E-02 1.756E+01 0.000E+00 0.000E+00 1.878E+01 1.764E+01 
2.300E-02 1.004E+00 9.188E-02 1.359E+01 0.000E+00 0.000E+00 1.469E+01 1.368E+01 
2.500E-02 8.922E-01 9.456E-02 1.075E+01 0.000E+00 0.000E+00 1.174E+01 1.084E+01 
2.671E-02 8.112E-01 9.657E-02 8.924E+00 0.000E+00 0.000E+00 9.832E+00 9.020E+00 
2.671E-02 8.112E-01 9.657E-02 2.852E+01 0.000E+00 0.000E+00 2.943E+01 2.861E+01 
2.700E-02 7.987E-01 9.689E-02 2.773E+01 0.000E+00 0.000E+00 2.862E+01 2.782E+01 
2.900E-02 7.201E-01 9.892E-02 2.300E+01 0.000E+00 0.000E+00 2.381E+01 2.309E+01 
3.000E-02 6.855E-01 9.984E-02 2.104E+01 0.000E+00 0.000E+00 2.182E+01 2.114E+01 
3.100E-02 6.535E-01 1.007E-01 1.929E+01 0.000E+00 0.000E+00 2.005E+01 1.939E+01 
3.181E-02 6.292E-01 1.014E-01 1.801E+01 0.000E+00 0.000E+00 1.874E+01 1.811E+01 
3.181E-02 6.292E-01 1.014E-01 3.421E+01 0.000E+00 0.000E+00 3.494E+01 3.431E+01 
3.300E-02 5.963E-01 1.023E-01 3.110E+01 0.000E+00 0.000E+00 3.180E+01 3.120E+01 
3.500E-02 5.466E-01 1.037E-01 2.667E+01 0.000E+00 0.000E+00 2.732E+01 2.678E+01 
3.700E-02 5.031E-01 1.049E-01 2.305E+01 0.000E+00 0.000E+00 2.366E+01 2.316E+01 
3.900E-02 4.648E-01 1.060E-01 2.006E+01 0.000E+00 0.000E+00 2.063E+01 2.016E+01 
4.000E-02 4.473E-01 1.065E-01 1.875E+01 0.000E+00 0.000E+00 1.930E+01 1.885E+01 
4.100E-02 4.309E-01 1.070E-01 1.755E+01 0.000E+00 0.000E+00 1.809E+01 1.766E+01 
4.300E-02 4.007E-01 1.078E-01 1.544E+01 0.000E+00 0.000E+00 1.595E+01 1.555E+01 
4.500E-02 3.737E-01 1.086E-01 1.365E+01 0.000E+00 0.000E+00 1.413E+01 1.376E+01 
4.700E-02 3.493E-01 1.092E-01 1.213E+01 0.000E+00 0.000E+00 1.259E+01 1.224E+01 
4.900E-02 3.272E-01 1.098E-01 1.082E+01 0.000E+00 0.000E+00 1.126E+01 1.093E+01 
5.000E-02 3.170E-01 1.100E-01 1.024E+01 0.000E+00 0.000E+00 1.067E+01 1.035E+01 
5.100E-02 3.071E-01 1.103E-01 9.699E+00 0.000E+00 0.000E+00 1.012E+01 9.809E+00 
5.300E-02 2.888E-01 1.107E-01 8.727E+00 0.000E+00 0.000E+00 9.126E+00 8.837E+00 
5.500E-02 2.720E-01 1.111E-01 7.881E+00 0.000E+00 0.000E+00 8.264E+00 7.992E+00 
5.700E-02 2.566E-01 1.114E-01 7.141E+00 0.000E+00 0.000E+00 7.509E+00 7.252E+00 
5.900E-02 2.424E-01 1.116E-01 6.491E+00 0.000E+00 0.000E+00 6.845E+00 6.602E+00 
6.000E-02 2.358E-01 1.117E-01 6.195E+00 0.000E+00 0.000E+00 6.542E+00 6.307E+00 
6.100E-02 2.294E-01 1.118E-01 5.917E+00 0.000E+00 0.000E+00 6.258E+00 6.029E+00 
6.300E-02 2.173E-01 1.120E-01 5.409E+00 0.000E+00 0.000E+00 5.738E+00 5.521E+00 
6.500E-02 2.062E-01 1.121E-01 4.957E+00 0.000E+00 0.000E+00 5.275E+00 5.069E+00 
6.700E-02 1.959E-01 1.122E-01 4.554E+00 0.000E+00 0.000E+00 4.862E+00 4.666E+00 
6.900E-02 1.863E-01 1.122E-01 4.193E+00 0.000E+00 0.000E+00 4.492E+00 4.305E+00 
7.100E-02 1.774E-01 1.122E-01 3.870E+00 0.000E+00 0.000E+00 4.159E+00 3.982E+00 
7.300E-02 1.692E-01 1.122E-01 3.578E+00 0.000E+00 0.000E+00 3.860E+00 3.691E+00 
7.500E-02 1.615E-01 1.122E-01 3.316E+00 0.000E+00 0.000E+00 3.589E+00 3.428E+00 
7.700E-02 1.543E-01 1.121E-01 3.078E+00 0.000E+00 0.000E+00 3.345E+00 3.190E+00 
7.900E-02 1.476E-01 1.121E-01 2.863E+00 0.000E+00 0.000E+00 3.122E+00 2.975E+00 
8.000E-02 1.444E-01 1.120E-01 2.763E+00 0.000E+00 0.000E+00 3.019E+00 2.875E+00 
8.100E-02 1.414E-01 1.120E-01 2.667E+00 0.000E+00 0.000E+00 2.920E+00 2.779E+00 
8.300E-02 1.355E-01 1.118E-01 2.489E+00 0.000E+00 0.000E+00 2.736E+00 2.600E+00 
8.500E-02 1.300E-01 1.117E-01 2.326E+00 0.000E+00 0.000E+00 2.568E+00 2.438E+00 
8.700E-02 1.248E-01 1.115E-01 2.177E+00 0.000E+00 0.000E+00 2.413E+00 2.289E+00 
8.900E-02 1.200E-01 1.114E-01 2.041E+00 0.000E+00 0.000E+00 2.272E+00 2.152E+00 
9.100E-02 1.154E-01 1.112E-01 1.915E+00 0.000E+00 0.000E+00 2.142E+00 2.027E+00 
9.300E-02 1.111E-01 1.110E-01 1.800E+00 0.000E+00 0.000E+00 2.022E+00 1.911E+00 
9.500E-02 1.070E-01 1.108E-01 1.694E+00 0.000E+00 0.000E+00 1.912E+00 1.805E+00 
9.700E-02 1.032E-01 1.106E-01 1.596E+00 0.000E+00 0.000E+00 1.810E+00 1.707E+00 
9.900E-02 9.955E-02 1.104E-01 1.506E+00 0.000E+00 0.000E+00 1.716E+00 1.616E+00 
1.000E-01 9.781E-02 1.103E-01 1.463E+00 0.000E+00 0.000E+00 1.671E+00 1.573E+00 
1.010E-01 9.611E-02 1.102E-01 1.422E+00 0.000E+00 0.000E+00 1.628E+00 1.532E+00 
1.030E-01 9.285E-02 1.100E-01 1.344E+00 0.000E+00 0.000E+00 1.547E+00 1.454E+00 
1.050E-01 8.975E-02 1.097E-01 1.272E+00 0.000E+00 0.000E+00 1.472E+00 1.382E+00 
1.070E-01 8.681E-02 1.095E-01 1.205E+00 0.000E+00 0.000E+00 1.402E+00 1.315E+00 
1.090E-01 8.402E-02 1.092E-01 1.143E+00 0.000E+00 0.000E+00 1.336E+00 1.252E+00 
1.110E-01 8.136E-02 1.090E-01 1.085E+00 0.000E+00 0.000E+00 1.275E+00 1.194E+00 
1.130E-01 7.883E-02 1.087E-01 1.031E+00 0.000E+00 0.000E+00 1.218E+00 1.139E+00 
1.150E-01 7.642E-02 1.085E-01 9.799E-01 0.000E+00 0.000E+00 1.165E+00 1.088E+00 
1.170E-01 7.412E-02 1.082E-01 9.325E-01 0.000E+00 0.000E+00 1.115E+00 1.041E+00 
1.190E-01 7.192E-02 1.080E-01 8.881E-01 0.000E+00 0.000E+00 1.068E+00 9.961E-01 
1.210E-01 6.982E-02 1.077E-01 8.466E-01 0.000E+00 0.000E+00 1.024E+00 9.543E-01 
1.230E-01 6.782E-02 1.074E-01 8.076E-01 0.000E+00 0.000E+00 9.828E-01 9.150E-01 
1.250E-01 6.590E-02 1.072E-01 7.709E-01 0.000E+00 0.000E+00 9.440E-01 8.781E-01 
1.270E-01 6.406E-02 1.069E-01 7.365E-01 0.000E+00 0.000E+00 9.075E-01 8.434E-01 
1.290E-01 6.229E-02 1.066E-01 7.041E-01 0.000E+00 0.000E+00 8.730E-01 8.107E-01 
1.310E-01 6.061E-02 1.064E-01 6.736E-01 0.000E+00 0.000E+00 8.406E-01 7.800E-01 
1.330E-01 5.898E-02 1.061E-01 6.448E-01 0.000E+00 0.000E+00 8.099E-01 7.509E-01 
1.350E-01 5.743E-02 1.058E-01 6.177E-01 0.000E+00 0.000E+00 7.809E-01 7.235E-01 
1.370E-01 5.593E-02 1.055E-01 5.921E-01 0.000E+00 0.000E+00 7.535E-01 6.976E-01 
1.390E-01 5.450E-02 1.053E-01 5.679E-01 0.000E+00 0.000E+00 7.276E-01 6.731E-01 
1.410E-01 5.312E-02 1.050E-01 5.450E-01 0.000E+00 0.000E+00 7.031E-01 6.499E-01 
1.430E-01 5.179E-02 1.047E-01 5.233E-01 0.000E+00 0.000E+00 6.798E-01 6.280E-01 
1.450E-01 5.051E-02 1.044E-01 5.027E-01 0.000E+00 0.000E+00 6.577E-01 6.072E-01 
1.470E-01 4.927E-02 1.042E-01 4.833E-01 0.000E+00 0.000E+00 6.367E-01 5.875E-01 
1.490E-01 4.809E-02 1.039E-01 4.648E-01 0.000E+00 0.000E+00 6.168E-01 5.687E-01 
1.500E-01 4.751E-02 1.038E-01 4.560E-01 0.000E+00 0.000E+00 6.072E-01 5.597E-01 
1.510E-01 4.694E-02 1.036E-01 4.473E-01 0.000E+00 0.000E+00 5.979E-01 5.509E-01 
1.530E-01 4.584E-02 1.033E-01 4.307E-01 0.000E+00 0.000E+00 5.798E-01 5.340E-01 
1.550E-01 4.477E-02 1.031E-01 4.148E-01 0.000E+00 0.000E+00 5.627E-01 5.179E-01 
1.570E-01 4.374E-02 1.028E-01 3.998E-01 0.000E+00 0.000E+00 5.463E-01 5.026E-01 
1.590E-01 4.275E-02 1.025E-01 3.855E-01 0.000E+00 0.000E+00 5.308E-01 4.880E-01 
1.610E-01 4.178E-02 1.023E-01 3.719E-01 0.000E+00 0.000E+00 5.159E-01 4.741E-01 
1.630E-01 4.086E-02 1.020E-01 3.589E-01 0.000E+00 0.000E+00 5.017E-01 4.608E-01 
1.650E-01 3.996E-02 1.017E-01 3.465E-01 0.000E+00 0.000E+00 4.882E-01 4.482E-01 
1.670E-01 3.909E-02 1.014E-01 3.347E-01 0.000E+00 0.000E+00 4.752E-01 4.361E-01 
1.690E-01 3.825E-02 1.012E-01 3.234E-01 0.000E+00 0.000E+00 4.628E-01 4.246E-01 
1.710E-01 3.743E-02 1.009E-01 3.126E-01 0.000E+00 0.000E+00 4.510E-01 4.135E-01 
1.730E-01 3.665E-02 1.006E-01 3.023E-01 0.000E+00 0.000E+00 4.396E-01 4.030E-01 
1.750E-01 3.588E-02 1.004E-01 2.925E-01 0.000E+00 0.000E+00 4.288E-01 3.929E-01 
1.770E-01 3.514E-02 1.001E-01 2.831E-01 0.000E+00 0.000E+00 4.184E-01 3.832E-01 
1.790E-01 3.442E-02 9.985E-02 2.741E-01 0.000E+00 0.000E+00 4.084E-01 3.740E-01 
1.810E-01 3.373E-02 9.958E-02 2.655E-01 0.000E+00 0.000E+00 3.988E-01 3.651E-01 
1.830E-01 3.305E-02 9.932E-02 2.572E-01 0.000E+00 0.000E+00 3.896E-01 3.566E-01 
1.850E-01 3.240E-02 9.906E-02 2.493E-01 0.000E+00 0.000E+00 3.808E-01 3.484E-01 
1.870E-01 3.176E-02 9.881E-02 2.418E-01 0.000E+00 0.000E+00 3.723E-01 3.406E-01 
1.890E-01 3.114E-02 9.855E-02 2.345E-01 0.000E+00 0.000E+00 3.642E-01 3.330E-01 
1.910E-01 3.054E-02 9.829E-02 2.275E-01 0.000E+00 0.000E+00 3.564E-01 3.258E-01 
1.930E-01 2.996E-02 9.804E-02 2.208E-01 0.000E+00 0.000E+00 3.488E-01 3.189E-01 
1.950E-01 2.940E-02 9.778E-02 2.144E-01 0.000E+00 0.000E+00 3.416E-01 3.122E-01 
1.970E-01 2.884E-02 9.753E-02 2.082E-01 0.000E+00 0.000E+00 3.346E-01 3.057E-01 
1.990E-01 2.831E-02 9.728E-02 2.023E-01 0.000E+00 0.000E+00 3.279E-01 2.996E-01 
2.000E-01 2.805E-02 9.715E-02 1.994E-01 0.000E+00 0.000E+00 3.246E-01 2.966E-01 
3.000E-01 1.305E-02 8.624E-02 6.353E-02 0.000E+00 0.000E+00 1.628E-01 1.498E-01 
4.000E-01 7.510E-03 7.803E-02 2.917E-02 0.000E+00 0.000E+00 1.147E-01 1.072E-01 
5.000E-01 4.868E-03 7.164E-02 1.641E-02 0.000E+00 0.000E+00 9.291E-02 8.804E-02 
6.000E-01 3.410E-03 6.652E-02 1.049E-02 0.000E+00 0.000E+00 8.042E-02 7.701E-02 
8.000E-01 1.937E-03 5.864E-02 5.425E-03 0.000E+00 0.000E+00 6.600E-02 6.406E-02 
1.000E+00 1.246E-03 5.279E-02 3.387E-03 0.000E+00 0.000E+00 5.742E-02 5.618E-02 
1.022E+00 1.193E-03 5.226E-02 3.223E-03 0.000E+00 0.000E+00 5.667E-02 5.548E-02 
1.250E+00 8.002E-04 4.727E-02 2.174E-03 1.708E-04 0.000E+00 5.042E-02 4.962E-02 
1.500E+00 5.566E-04 4.300E-02 1.557E-03 7.939E-04 0.000E+00 4.591E-02 4.535E-02 
2.000E+00 3.138E-04 3.672E-02 9.484E-04 2.712E-03 0.000E+00 4.070E-02 4.038E-02 
2.044E+00 3.004E-04 3.627E-02 9.151E-04 2.900E-03 0.000E+00 4.039E-02 4.009E-02 
3.000E+00 1.397E-04 2.891E-02 5.038E-04 6.928E-03 1.011E-05 3.649E-02 3.635E-02 
4.000E+00 7.861E-05 2.412E-02 3.342E-04 1.067E-02 4.125E-05 3.525E-02 3.517E-02 
5.000E+00 5.033E-05 2.084E-02 2.473E-04 1.391E-02 8.210E-05 3.513E-02 3.508E-02 
6.000E+00 3.495E-05 1.842E-02 1.953E-04 1.670E-02 1.260E-04 3.548E-02 3.544E-02 
7.000E+00 2.568E-05 1.656E-02 1.609E-04 1.919E-02 1.697E-04 3.610E-02 3.608E-02 
8.000E+00 1.966E-05 1.507E-02 1.366E-04 2.143E-02 2.119E-04 3.687E-02 3.685E-02 
9.000E+00 1.554E-05 1.385E-02 1.185E-04 2.346E-02 2.524E-04 3.770E-02 3.769E-02 
1.000E+01 1.259E-05 1.283E-02 1.046E-04 2.533E-02 2.908E-04 3.857E-02 3.856E-02 
1.100E+01 1.040E-05 1.197E-02 9.359E-05 2.704E-02 3.271E-04 3.944E-02 3.943E-02 
1.200E+01 8.739E-06 1.123E-02 8.463E-05 2.863E-02 3.614E-04 4.031E-02 4.030E-02 
1.300E+01 7.447E-06 1.058E-02 7.721E-05 3.010E-02 3.937E-04 4.115E-02 4.114E-02 
1.400E+01 6.421E-06 1.001E-02 7.101E-05 3.145E-02 4.244E-04 4.196E-02 4.195E-02 
1.500E+01 5.594E-06 9.499E-03 6.566E-05 3.270E-02 4.534E-04 4.273E-02 4.272E-02 
1.600E+01 4.916E-06 9.048E-03 6.110E-05 3.387E-02 4.810E-04 4.346E-02 4.346E-02 
1.800E+01 3.884E-06 8.268E-03 5.361E-05 3.600E-02 5.322E-04 4.486E-02 4.485E-02 
2.000E+01 3.146E-06 7.625E-03 4.776E-05 3.791E-02 5.786E-04 4.616E-02 4.616E-02 
2.200E+01 2.600E-06 7.083E-03 4.305E-05 3.964E-02 6.213E-04 4.739E-02 4.739E-02 
2.400E+01 2.185E-06 6.617E-03 3.916E-05 4.121E-02 6.601E-04 4.853E-02 4.853E-02 
2.600E+01 1.862E-06 6.215E-03 3.593E-05 4.265E-02 6.963E-04 4.960E-02 4.960E-02 
2.800E+01 1.605E-06 5.861E-03 3.319E-05 4.396E-02 7.296E-04 5.059E-02 5.058E-02 
3.000E+01 1.399E-06 5.550E-03 3.083E-05 4.517E-02 7.605E-04 5.151E-02 5.151E-02 
4.000E+01 7.866E-07 4.411E-03 2.275E-05 5.010E-02 8.892E-04 5.542E-02 5.542E-02 
5.000E+01 5.034E-07 3.682E-03 1.802E-05 5.374E-02 9.871E-04 5.843E-02 5.843E-02 
6.000E+01 3.496E-07 3.173E-03 1.492E-05 5.656E-02 1.064E-03 6.081E-02 6.081E-02 
8.000E+01 1.966E-07 2.502E-03 1.110E-05 6.077E-02 1.181E-03 6.446E-02 6.446E-02 
1.000E+02 1.259E-07 2.077E-03 8.832E-06 6.373E-02 1.266E-03 6.708E-02 6.708E-02 
1.500E+02 5.594E-08 1.479E-03 5.848E-06 6.845E-02 1.406E-03 7.134E-02 7.134E-02 
2.000E+02 3.146E-08 1.159E-03 4.371E-06 7.131E-02 1.493E-03 7.397E-02 7.397E-02 
3.000E+02 1.398E-08 8.217E-04 2.905E-06 7.457E-02 1.601E-03 7.700E-02 7.700E-02 
4.000E+02 7.866E-09 6.436E-04 2.175E-06 7.648E-02 1.665E-03 7.879E-02 7.879E-02 
5.000E+02 5.034E-09 5.327E-04 1.738E-06 7.773E-02 1.709E-03 7.998E-02 7.998E-02 
6.000E+02 3.496E-09 4.562E-04 1.448E-06 7.864E-02 1.742E-03 8.083E-02 8.083E-02 
8.000E+02 1.966E-09 3.563E-04 1.084E-06 7.981E-02 1.786E-03 8.196E-02 8.196E-02 
1.000E+03 1.259E-09 2.931E-04 8.671E-07 8.059E-02 1.815E-03 8.270E-02 8.270E-02 
1.500E+03 5.594E-10 2.047E-04 5.777E-07 8.167E-02 1.860E-03 8.374E-02 8.374E-02 
2.000E+03 3.146E-10 1.585E-04 4.332E-07 8.230E-02 1.884E-03 8.434E-02 8.434E-02 
3.000E+03 1.398E-10 1.101E-04 2.887E-07 8.295E-02 1.911E-03 8.497E-02 8.497E-02 
4.000E+03 7.866E-11 8.503E-05 2.165E-07 8.330E-02 1.927E-03 8.531E-02 8.531E-02 
5.000E+03 5.034E-11 6.953E-05 1.732E-07 8.353E-02 1.937E-03 8.553E-02 8.553E-02 
6.000E+03 3.496E-11 5.896E-05 1.443E-07 8.368E-02 1.944E-03 8.568E-02 8.568E-02 
8.000E+03 1.966E-11 4.542E-05 1.082E-07 8.388E-02 1.953E-03 8.588E-02 8.588E-02 
1.000E+04 1.259E-11 3.709E-05 8.656E-08 8.400E-02 1.959E-03 8.600E-02 8.600E-02 
1.500E+04 5.594E-12 2.563E-05 5.771E-08 8.418E-02 1.967E-03 8.617E-02 8.617E-02 
2.000E+04 3.146E-12 1.970E-05 4.328E-08 8.428E-02 1.971E-03 8.627E-02 8.627E-02 
3.000E+04 1.398E-12 1.359E-05 2.885E-08 8.438E-02 1.975E-03 8.637E-02 8.637E-02 
4.000E+04 7.866E-13 1.043E-05 2.164E-08 8.443E-02 1.978E-03 8.642E-02 8.642E-02 
5.000E+04 5.034E-13 8.496E-06 1.731E-08 8.446E-02 1.980E-03 8.645E-02 8.645E-02 
6.000E+04 3.496E-13 7.181E-06 1.442E-08 8.448E-02 1.981E-03 8.647E-02 8.647E-02 
8.000E+04 1.966E-13 5.505E-06 1.082E-08 8.451E-02 1.982E-03 8.649E-02 8.649E-02 
1.000E+05 1.259E-13 4.480E-06 8.656E-09 8.453E-02 1.983E-03 8.652E-02 8.652E-02 