Photon    Coherent Incoher. Photoel. Nuclear  Electron Tot. w/  Tot. wo/ 
Energy    Scatter. Scatter. Absorb.  Pr. Prd. Pr. Prd. Coherent Coherent 

1.000E-03 8.486E+00 5.298E-03 9.225E+03 0.000E+00 0.000E+00 9.234E+03 9.225E+03 
1.065E-03 8.429E+00 5.817E-03 8.090E+03 0.000E+00 0.000E+00 8.098E+03 8.090E+03 
1.065E-03 8.429E+00 5.817E-03 8.331E+03 0.000E+00 0.000E+00 8.339E+03 8.331E+03 
1.069E-03 8.425E+00 5.846E-03 8.273E+03 0.000E+00 0.000E+00 8.282E+03 8.273E+03 
1.072E-03 8.422E+00 5.874E-03 8.216E+03 0.000E+00 0.000E+00 8.225E+03 8.216E+03 
1.072E-03 8.422E+00 5.874E-03 8.381E+03 0.000E+00 0.000E+00 8.389E+03 8.381E+03 
1.142E-03 8.358E+00 6.443E-03 7.319E+03 0.000E+00 0.000E+00 7.328E+03 7.319E+03 
1.217E-03 8.289E+00 7.056E-03 6.393E+03 0.000E+00 0.000E+00 6.401E+03 6.393E+03 
1.217E-03 8.289E+00 7.056E-03 6.548E+03 0.000E+00 0.000E+00 6.556E+03 6.548E+03 
1.500E-03 8.018E+00 9.427E-03 4.124E+03 0.000E+00 0.000E+00 4.132E+03 4.124E+03 
2.000E-03 7.512E+00 1.372E-02 2.106E+03 0.000E+00 0.000E+00 2.114E+03 2.106E+03 
3.000E-03 6.530E+00 2.197E-02 7.814E+02 0.000E+00 0.000E+00 7.879E+02 7.814E+02 
4.000E-03 5.688E+00 2.936E-02 3.779E+02 0.000E+00 0.000E+00 3.836E+02 3.779E+02 
4.557E-03 5.298E+00 3.302E-02 2.703E+02 0.000E+00 0.000E+00 2.756E+02 2.703E+02 
4.557E-03 5.298E+00 3.302E-02 5.125E+02 0.000E+00 0.000E+00 5.178E+02 5.125E+02 
4.702E-03 5.199E+00 3.393E-02 4.782E+02 0.000E+00 0.000E+00 4.834E+02 4.782E+02 
4.852E-03 5.096E+00 3.485E-02 4.462E+02 0.000E+00 0.000E+00 4.513E+02 4.462E+02 
4.852E-03 5.096E+00 3.485E-02 5.584E+02 0.000E+00 0.000E+00 5.635E+02 5.584E+02 
5.000E-03 4.993E+00 3.575E-02 5.246E+02 0.000E+00 0.000E+00 5.296E+02 5.246E+02 
5.012E-03 4.984E+00 3.582E-02 5.214E+02 0.000E+00 0.000E+00 5.264E+02 5.214E+02 
5.012E-03 4.984E+00 3.582E-02 7.457E+02 0.000E+00 0.000E+00 7.507E+02 7.457E+02 
5.099E-03 4.926E+00 3.634E-02 7.135E+02 0.000E+00 0.000E+00 7.184E+02 7.135E+02 
5.188E-03 4.871E+00 3.686E-02 6.826E+02 0.000E+00 0.000E+00 6.875E+02 6.827E+02 
5.188E-03 4.871E+00 3.686E-02 7.399E+02 0.000E+00 0.000E+00 7.448E+02 7.399E+02 
5.273E-03 4.820E+00 3.735E-02 7.105E+02 0.000E+00 0.000E+00 7.154E+02 7.106E+02 
5.359E-03 4.770E+00 3.784E-02 6.824E+02 0.000E+00 0.000E+00 6.872E+02 6.824E+02 
5.359E-03 4.770E+00 3.784E-02 7.871E+02 0.000E+00 0.000E+00 7.919E+02 7.872E+02 
5.534E-03 4.669E+00 3.882E-02 7.267E+02 0.000E+00 0.000E+00 7.314E+02 7.267E+02 
5.714E-03 4.566E+00 3.980E-02 6.710E+02 0.000E+00 0.000E+00 6.756E+02 6.711E+02 
5.714E-03 4.566E+00 3.980E-02 7.215E+02 0.000E+00 0.000E+00 7.262E+02 7.216E+02 
6.000E-03 4.409E+00 4.133E-02 6.404E+02 0.000E+00 0.000E+00 6.449E+02 6.405E+02 
7.000E-03 3.915E+00 4.634E-02 4.293E+02 0.000E+00 0.000E+00 4.333E+02 4.293E+02 
8.000E-03 3.498E+00 5.092E-02 3.036E+02 0.000E+00 0.000E+00 3.071E+02 3.036E+02 
9.000E-03 3.144E+00 5.522E-02 2.223E+02 0.000E+00 0.000E+00 2.255E+02 2.224E+02 
1.000E-02 2.843E+00 5.922E-02 1.682E+02 0.000E+00 0.000E+00 1.711E+02 1.683E+02 
1.100E-02 2.589E+00 6.294E-02 1.300E+02 0.000E+00 0.000E+00 1.327E+02 1.301E+02 
1.300E-02 2.182E+00 6.956E-02 8.276E+01 0.000E+00 0.000E+00 8.502E+01 8.283E+01 
1.500E-02 1.871E+00 7.519E-02 5.621E+01 0.000E+00 0.000E+00 5.816E+01 5.628E+01 
1.700E-02 1.626E+00 7.995E-02 3.981E+01 0.000E+00 0.000E+00 4.152E+01 3.989E+01 
1.900E-02 1.424E+00 8.400E-02 2.930E+01 0.000E+00 0.000E+00 3.081E+01 2.938E+01 
2.000E-02 1.336E+00 8.581E-02 2.544E+01 0.000E+00 0.000E+00 2.686E+01 2.552E+01 
2.100E-02 1.255E+00 8.748E-02 2.219E+01 0.000E+00 0.000E+00 2.353E+01 2.228E+01 
2.300E-02 1.112E+00 9.050E-02 1.721E+01 0.000E+00 0.000E+00 1.841E+01 1.730E+01 
2.500E-02 9.912E-01 9.311E-02 1.363E+01 0.000E+00 0.000E+00 1.471E+01 1.372E+01 
2.700E-02 8.886E-01 9.540E-02 1.099E+01 0.000E+00 0.000E+00 1.197E+01 1.108E+01 
2.900E-02 8.013E-01 9.741E-02 8.998E+00 0.000E+00 0.000E+00 9.897E+00 9.096E+00 
3.000E-02 7.626E-01 9.833E-02 8.185E+00 0.000E+00 0.000E+00 9.045E+00 8.283E+00 
3.100E-02 7.267E-01 9.918E-02 7.460E+00 0.000E+00 0.000E+00 8.286E+00 7.560E+00 
3.300E-02 6.626E-01 1.007E-01 6.252E+00 0.000E+00 0.000E+00 7.016E+00 6.353E+00 
3.317E-02 6.576E-01 1.009E-01 6.163E+00 0.000E+00 0.000E+00 6.921E+00 6.264E+00 
3.317E-02 6.576E-01 1.009E-01 2.046E+01 0.000E+00 0.000E+00 2.122E+01 2.056E+01 
3.500E-02 6.070E-01 1.021E-01 1.776E+01 0.000E+00 0.000E+00 1.846E+01 1.786E+01 
3.598E-02 5.823E-01 1.027E-01 1.650E+01 0.000E+00 0.000E+00 1.718E+01 1.660E+01 
3.598E-02 5.823E-01 1.027E-01 2.958E+01 0.000E+00 0.000E+00 3.026E+01 2.968E+01 
3.700E-02 5.586E-01 1.034E-01 2.748E+01 0.000E+00 0.000E+00 2.814E+01 2.759E+01 
3.900E-02 5.161E-01 1.044E-01 2.391E+01 0.000E+00 0.000E+00 2.453E+01 2.402E+01 
4.000E-02 4.967E-01 1.049E-01 2.237E+01 0.000E+00 0.000E+00 2.297E+01 2.247E+01 
4.100E-02 4.785E-01 1.054E-01 2.096E+01 0.000E+00 0.000E+00 2.155E+01 2.107E+01 
4.300E-02 4.452E-01 1.063E-01 1.850E+01 0.000E+00 0.000E+00 1.905E+01 1.860E+01 
4.500E-02 4.154E-01 1.070E-01 1.641E+01 0.000E+00 0.000E+00 1.694E+01 1.652E+01 
4.700E-02 3.886E-01 1.077E-01 1.463E+01 0.000E+00 0.000E+00 1.513E+01 1.474E+01 
4.900E-02 3.643E-01 1.082E-01 1.310E+01 0.000E+00 0.000E+00 1.357E+01 1.321E+01 
5.000E-02 3.530E-01 1.085E-01 1.241E+01 0.000E+00 0.000E+00 1.287E+01 1.252E+01 
5.100E-02 3.422E-01 1.087E-01 1.177E+01 0.000E+00 0.000E+00 1.222E+01 1.187E+01 
5.300E-02 3.221E-01 1.092E-01 1.060E+01 0.000E+00 0.000E+00 1.103E+01 1.071E+01 
5.500E-02 3.037E-01 1.095E-01 9.584E+00 0.000E+00 0.000E+00 9.997E+00 9.693E+00 
5.700E-02 2.868E-01 1.099E-01 8.690E+00 0.000E+00 0.000E+00 9.087E+00 8.800E+00 
5.900E-02 2.712E-01 1.101E-01 7.904E+00 0.000E+00 0.000E+00 8.286E+00 8.014E+00 
6.000E-02 2.639E-01 1.102E-01 7.547E+00 0.000E+00 0.000E+00 7.921E+00 7.657E+00 
6.100E-02 2.568E-01 1.103E-01 7.211E+00 0.000E+00 0.000E+00 7.579E+00 7.322E+00 
6.300E-02 2.435E-01 1.105E-01 6.598E+00 0.000E+00 0.000E+00 6.952E+00 6.709E+00 
6.500E-02 2.312E-01 1.107E-01 6.054E+00 0.000E+00 0.000E+00 6.396E+00 6.164E+00 
6.700E-02 2.198E-01 1.108E-01 5.568E+00 0.000E+00 0.000E+00 5.899E+00 5.679E+00 
6.900E-02 2.092E-01 1.108E-01 5.133E+00 0.000E+00 0.000E+00 5.453E+00 5.244E+00 
7.100E-02 1.994E-01 1.109E-01 4.743E+00 0.000E+00 0.000E+00 5.053E+00 4.854E+00 
7.300E-02 1.902E-01 1.109E-01 4.392E+00 0.000E+00 0.000E+00 4.693E+00 4.502E+00 
7.500E-02 1.816E-01 1.109E-01 4.074E+00 0.000E+00 0.000E+00 4.367E+00 4.185E+00 
7.700E-02 1.736E-01 1.109E-01 3.786E+00 0.000E+00 0.000E+00 4.071E+00 3.897E+00 
7.900E-02 1.661E-01 1.108E-01 3.525E+00 0.000E+00 0.000E+00 3.802E+00 3.636E+00 
8.000E-02 1.625E-01 1.108E-01 3.404E+00 0.000E+00 0.000E+00 3.677E+00 3.514E+00 
8.100E-02 1.591E-01 1.107E-01 3.287E+00 0.000E+00 0.000E+00 3.557E+00 3.398E+00 
8.300E-02 1.525E-01 1.106E-01 3.071E+00 0.000E+00 0.000E+00 3.334E+00 3.181E+00 
8.500E-02 1.463E-01 1.105E-01 2.872E+00 0.000E+00 0.000E+00 3.129E+00 2.983E+00 
8.700E-02 1.405E-01 1.104E-01 2.691E+00 0.000E+00 0.000E+00 2.942E+00 2.801E+00 
8.900E-02 1.351E-01 1.103E-01 2.524E+00 0.000E+00 0.000E+00 2.769E+00 2.634E+00 
9.100E-02 1.299E-01 1.101E-01 2.371E+00 0.000E+00 0.000E+00 2.611E+00 2.481E+00 
9.300E-02 1.251E-01 1.099E-01 2.230E+00 0.000E+00 0.000E+00 2.465E+00 2.340E+00 
9.500E-02 1.205E-01 1.098E-01 2.100E+00 0.000E+00 0.000E+00 2.330E+00 2.209E+00 
9.700E-02 1.162E-01 1.096E-01 1.980E+00 0.000E+00 0.000E+00 2.205E+00 2.089E+00 
9.900E-02 1.121E-01 1.094E-01 1.868E+00 0.000E+00 0.000E+00 2.090E+00 1.978E+00 
1.000E-01 1.101E-01 1.093E-01 1.816E+00 0.000E+00 0.000E+00 2.035E+00 1.925E+00 
1.010E-01 1.082E-01 1.092E-01 1.766E+00 0.000E+00 0.000E+00 1.983E+00 1.875E+00 
1.030E-01 1.045E-01 1.090E-01 1.670E+00 0.000E+00 0.000E+00 1.884E+00 1.779E+00 
1.050E-01 1.011E-01 1.088E-01 1.582E+00 0.000E+00 0.000E+00 1.791E+00 1.690E+00 
1.070E-01 9.776E-02 1.085E-01 1.499E+00 0.000E+00 0.000E+00 1.705E+00 1.608E+00 
1.090E-01 9.461E-02 1.083E-01 1.422E+00 0.000E+00 0.000E+00 1.625E+00 1.531E+00 
1.110E-01 9.162E-02 1.081E-01 1.351E+00 0.000E+00 0.000E+00 1.550E+00 1.459E+00 
1.130E-01 8.878E-02 1.078E-01 1.284E+00 0.000E+00 0.000E+00 1.480E+00 1.392E+00 
1.150E-01 8.606E-02 1.076E-01 1.221E+00 0.000E+00 0.000E+00 1.415E+00 1.329E+00 
1.170E-01 8.348E-02 1.073E-01 1.163E+00 0.000E+00 0.000E+00 1.354E+00 1.270E+00 
1.190E-01 8.101E-02 1.071E-01 1.108E+00 0.000E+00 0.000E+00 1.296E+00 1.215E+00 
1.210E-01 7.865E-02 1.068E-01 1.057E+00 0.000E+00 0.000E+00 1.242E+00 1.164E+00 
1.230E-01 7.639E-02 1.066E-01 1.008E+00 0.000E+00 0.000E+00 1.191E+00 1.115E+00 
1.250E-01 7.423E-02 1.063E-01 9.632E-01 0.000E+00 0.000E+00 1.144E+00 1.070E+00 
1.270E-01 7.216E-02 1.061E-01 9.206E-01 0.000E+00 0.000E+00 1.099E+00 1.027E+00 
1.290E-01 7.018E-02 1.058E-01 8.805E-01 0.000E+00 0.000E+00 1.056E+00 9.863E-01 
1.310E-01 6.828E-02 1.055E-01 8.427E-01 0.000E+00 0.000E+00 1.016E+00 9.482E-01 
1.330E-01 6.646E-02 1.053E-01 8.070E-01 0.000E+00 0.000E+00 9.788E-01 9.123E-01 
1.350E-01 6.471E-02 1.050E-01 7.734E-01 0.000E+00 0.000E+00 9.431E-01 8.784E-01 
1.370E-01 6.303E-02 1.047E-01 7.416E-01 0.000E+00 0.000E+00 9.094E-01 8.463E-01 
1.390E-01 6.142E-02 1.045E-01 7.116E-01 0.000E+00 0.000E+00 8.775E-01 8.160E-01 
1.410E-01 5.987E-02 1.042E-01 6.831E-01 0.000E+00 0.000E+00 8.472E-01 7.873E-01 
1.430E-01 5.837E-02 1.039E-01 6.562E-01 0.000E+00 0.000E+00 8.185E-01 7.602E-01 
1.450E-01 5.694E-02 1.037E-01 6.307E-01 0.000E+00 0.000E+00 7.913E-01 7.344E-01 
1.470E-01 5.555E-02 1.034E-01 6.065E-01 0.000E+00 0.000E+00 7.655E-01 7.099E-01 
1.490E-01 5.422E-02 1.031E-01 5.836E-01 0.000E+00 0.000E+00 7.409E-01 6.867E-01 
1.500E-01 5.357E-02 1.030E-01 5.725E-01 0.000E+00 0.000E+00 7.291E-01 6.755E-01 
1.510E-01 5.293E-02 1.029E-01 5.618E-01 0.000E+00 0.000E+00 7.176E-01 6.646E-01 
1.530E-01 5.169E-02 1.026E-01 5.411E-01 0.000E+00 0.000E+00 6.953E-01 6.437E-01 
1.550E-01 5.049E-02 1.023E-01 5.214E-01 0.000E+00 0.000E+00 6.742E-01 6.237E-01 
1.570E-01 4.933E-02 1.021E-01 5.026E-01 0.000E+00 0.000E+00 6.540E-01 6.047E-01 
1.590E-01 4.822E-02 1.018E-01 4.848E-01 0.000E+00 0.000E+00 6.348E-01 5.866E-01 
1.610E-01 4.714E-02 1.015E-01 4.678E-01 0.000E+00 0.000E+00 6.165E-01 5.693E-01 
1.630E-01 4.610E-02 1.013E-01 4.516E-01 0.000E+00 0.000E+00 5.990E-01 5.529E-01 
1.650E-01 4.509E-02 1.010E-01 4.362E-01 0.000E+00 0.000E+00 5.823E-01 5.372E-01 
1.670E-01 4.411E-02 1.007E-01 4.214E-01 0.000E+00 0.000E+00 5.663E-01 5.222E-01 
1.690E-01 4.317E-02 1.005E-01 4.074E-01 0.000E+00 0.000E+00 5.510E-01 5.078E-01 
1.710E-01 4.225E-02 1.002E-01 3.939E-01 0.000E+00 0.000E+00 5.364E-01 4.941E-01 
1.730E-01 4.137E-02 9.996E-02 3.811E-01 0.000E+00 0.000E+00 5.224E-01 4.810E-01 
1.750E-01 4.051E-02 9.970E-02 3.688E-01 0.000E+00 0.000E+00 5.090E-01 4.685E-01 
1.770E-01 3.968E-02 9.944E-02 3.570E-01 0.000E+00 0.000E+00 4.962E-01 4.565E-01 
1.790E-01 3.887E-02 9.918E-02 3.458E-01 0.000E+00 0.000E+00 4.838E-01 4.450E-01 
1.810E-01 3.809E-02 9.893E-02 3.350E-01 0.000E+00 0.000E+00 4.720E-01 4.339E-01 
1.830E-01 3.733E-02 9.867E-02 3.247E-01 0.000E+00 0.000E+00 4.607E-01 4.234E-01 
1.850E-01 3.660E-02 9.841E-02 3.148E-01 0.000E+00 0.000E+00 4.498E-01 4.132E-01 
1.870E-01 3.588E-02 9.816E-02 3.053E-01 0.000E+00 0.000E+00 4.394E-01 4.035E-01 
1.890E-01 3.519E-02 9.791E-02 2.962E-01 0.000E+00 0.000E+00 4.293E-01 3.941E-01 
1.910E-01 3.451E-02 9.766E-02 2.875E-01 0.000E+00 0.000E+00 4.197E-01 3.851E-01 
1.930E-01 3.386E-02 9.741E-02 2.791E-01 0.000E+00 0.000E+00 4.104E-01 3.765E-01 
1.950E-01 3.322E-02 9.716E-02 2.711E-01 0.000E+00 0.000E+00 4.014E-01 3.682E-01 
1.970E-01 3.260E-02 9.691E-02 2.633E-01 0.000E+00 0.000E+00 3.928E-01 3.602E-01 
1.990E-01 3.200E-02 9.666E-02 2.559E-01 0.000E+00 0.000E+00 3.845E-01 3.525E-01 
2.000E-01 3.171E-02 9.654E-02 2.523E-01 0.000E+00 0.000E+00 3.805E-01 3.488E-01 
3.000E-01 1.481E-02 8.583E-02 8.117E-02 0.000E+00 0.000E+00 1.818E-01 1.670E-01 
4.000E-01 8.530E-03 7.772E-02 3.748E-02 0.000E+00 0.000E+00 1.237E-01 1.152E-01 
5.000E-01 5.537E-03 7.139E-02 2.116E-02 0.000E+00 0.000E+00 9.809E-02 9.255E-02 
6.000E-01 3.880E-03 6.629E-02 1.356E-02 0.000E+00 0.000E+00 8.374E-02 7.986E-02 
8.000E-01 2.206E-03 5.846E-02 7.033E-03 0.000E+00 0.000E+00 6.770E-02 6.549E-02 
1.000E+00 1.420E-03 5.266E-02 4.393E-03 0.000E+00 0.000E+00 5.848E-02 5.706E-02 
1.022E+00 1.360E-03 5.211E-02 4.194E-03 0.000E+00 0.000E+00 5.766E-02 5.630E-02 
1.250E+00 9.123E-04 4.715E-02 2.828E-03 1.937E-04 0.000E+00 5.109E-02 5.017E-02 
1.500E+00 6.349E-04 4.289E-02 2.024E-03 8.956E-04 0.000E+00 4.644E-02 4.581E-02 
2.000E+00 3.580E-04 3.663E-02 1.231E-03 3.006E-03 0.000E+00 4.123E-02 4.087E-02 
2.044E+00 3.428E-04 3.618E-02 1.188E-03 3.209E-03 0.000E+00 4.092E-02 4.058E-02 
3.000E+00 1.594E-04 2.884E-02 6.525E-04 7.542E-03 1.009E-05 3.721E-02 3.705E-02 
4.000E+00 8.973E-05 2.406E-02 4.320E-04 1.153E-02 4.114E-05 3.616E-02 3.607E-02 
5.000E+00 5.744E-05 2.079E-02 3.192E-04 1.497E-02 8.189E-05 3.622E-02 3.616E-02 
6.000E+00 3.989E-05 1.837E-02 2.518E-04 1.794E-02 1.256E-04 3.673E-02 3.669E-02 
7.000E+00 2.931E-05 1.652E-02 2.073E-04 2.057E-02 1.692E-04 3.749E-02 3.747E-02 
8.000E+00 2.244E-05 1.503E-02 1.759E-04 2.294E-02 2.113E-04 3.838E-02 3.836E-02 
9.000E+00 1.773E-05 1.382E-02 1.525E-04 2.509E-02 2.516E-04 3.933E-02 3.931E-02 
1.000E+01 1.436E-05 1.280E-02 1.346E-04 2.706E-02 2.898E-04 4.030E-02 4.029E-02 
1.100E+01 1.187E-05 1.194E-02 1.203E-04 2.888E-02 3.260E-04 4.128E-02 4.126E-02 
1.200E+01 9.976E-06 1.120E-02 1.088E-04 3.056E-02 3.601E-04 4.224E-02 4.223E-02 
1.300E+01 8.500E-06 1.055E-02 9.921E-05 3.212E-02 3.922E-04 4.317E-02 4.317E-02 
1.400E+01 7.329E-06 9.981E-03 9.116E-05 3.357E-02 4.228E-04 4.407E-02 4.406E-02 
1.500E+01 6.383E-06 9.478E-03 8.435E-05 3.491E-02 4.516E-04 4.493E-02 4.492E-02 
1.600E+01 5.612E-06 9.026E-03 7.846E-05 3.615E-02 4.791E-04 4.573E-02 4.573E-02 
1.800E+01 4.435E-06 8.247E-03 6.880E-05 3.840E-02 5.299E-04 4.725E-02 4.725E-02 
2.000E+01 3.592E-06 7.605E-03 6.126E-05 4.043E-02 5.760E-04 4.867E-02 4.867E-02 
2.200E+01 2.968E-06 7.065E-03 5.521E-05 4.226E-02 6.184E-04 5.001E-02 5.000E-02 
2.400E+01 2.494E-06 6.604E-03 5.023E-05 4.393E-02 6.571E-04 5.125E-02 5.124E-02 
2.600E+01 2.125E-06 6.200E-03 4.608E-05 4.545E-02 6.931E-04 5.239E-02 5.239E-02 
2.800E+01 1.832E-06 5.848E-03 4.255E-05 4.684E-02 7.260E-04 5.346E-02 5.346E-02 
3.000E+01 1.596E-06 5.537E-03 3.953E-05 4.814E-02 7.570E-04 5.448E-02 5.448E-02 
4.000E+01 8.980E-07 4.401E-03 2.915E-05 5.333E-02 8.845E-04 5.865E-02 5.865E-02 
5.000E+01 5.746E-07 3.674E-03 2.309E-05 5.721E-02 9.812E-04 6.188E-02 6.188E-02 
6.000E+01 3.991E-07 3.165E-03 1.911E-05 6.024E-02 1.058E-03 6.448E-02 6.448E-02 
8.000E+01 2.245E-07 2.496E-03 1.421E-05 6.467E-02 1.173E-03 6.835E-02 6.835E-02 
1.000E+02 1.437E-07 2.072E-03 1.131E-05 6.782E-02 1.257E-03 7.116E-02 7.116E-02 
1.500E+02 6.383E-08 1.476E-03 7.487E-06 7.285E-02 1.396E-03 7.573E-02 7.573E-02 
2.000E+02 3.591E-08 1.157E-03 5.595E-06 7.586E-02 1.483E-03 7.851E-02 7.851E-02 
3.000E+02 1.596E-08 8.198E-04 3.717E-06 7.936E-02 1.590E-03 8.178E-02 8.178E-02 
4.000E+02 8.980E-09 6.423E-04 2.783E-06 8.138E-02 1.654E-03 8.368E-02 8.368E-02 
5.000E+02 5.746E-09 5.315E-04 2.224E-06 8.270E-02 1.697E-03 8.493E-02 8.493E-02 
6.000E+02 3.990E-09 4.551E-04 1.852E-06 8.365E-02 1.729E-03 8.584E-02 8.584E-02 
8.000E+02 2.244E-09 3.555E-04 1.388E-06 8.490E-02 1.774E-03 8.704E-02 8.704E-02 
1.000E+03 1.436E-09 2.924E-04 1.110E-06 8.574E-02 1.803E-03 8.784E-02 8.784E-02 
1.500E+03 6.383E-10 2.042E-04 7.394E-07 8.692E-02 1.847E-03 8.897E-02 8.897E-02 
2.000E+03 3.591E-10 1.581E-04 5.542E-07 8.757E-02 1.872E-03 8.960E-02 8.960E-02 
3.000E+03 1.596E-10 1.099E-04 3.694E-07 8.827E-02 1.899E-03 9.028E-02 9.028E-02 
4.000E+03 8.980E-11 8.484E-05 2.770E-07 8.864E-02 1.915E-03 9.064E-02 9.064E-02 
5.000E+03 5.746E-11 6.937E-05 2.216E-07 8.889E-02 1.925E-03 9.089E-02 9.089E-02 
6.000E+03 3.990E-11 5.881E-05 1.846E-07 8.903E-02 1.932E-03 9.102E-02 9.102E-02 
8.000E+03 2.244E-11 4.532E-05 1.385E-07 8.926E-02 1.941E-03 9.125E-02 9.125E-02 
1.000E+04 1.436E-11 3.700E-05 1.108E-07 8.940E-02 1.947E-03 9.139E-02 9.139E-02 
1.500E+04 6.383E-12 2.557E-05 7.385E-08 8.961E-02 1.955E-03 9.159E-02 9.159E-02 
2.000E+04 3.591E-12 1.966E-05 5.537E-08 8.970E-02 1.960E-03 9.168E-02 9.168E-02 
3.000E+04 1.596E-12 1.356E-05 3.691E-08 8.980E-02 1.964E-03 9.177E-02 9.177E-02 
4.000E+04 8.980E-13 1.041E-05 2.769E-08 8.984E-02 1.967E-03 9.182E-02 9.182E-02 
5.000E+04 5.746E-13 8.477E-06 2.215E-08 8.989E-02 1.968E-03 9.187E-02 9.187E-02 
6.000E+04 3.990E-13 7.165E-06 1.846E-08 8.991E-02 1.969E-03 9.189E-02 9.189E-02 
8.000E+04 2.244E-13 5.493E-06 1.384E-08 8.993E-02 1.971E-03 9.191E-02 9.191E-02 
1.000E+05 1.436E-13 4.470E-06 1.107E-08 8.996E-02 1.972E-03 9.193E-02 9.193E-02 