Photon    Coherent Incoher. Photoel. Nuclear  Electron Tot. w/  Tot. wo/ 
Energy    Scatter. Scatter. Absorb.  Pr. Prd. Pr. Prd. Coherent Coherent 

1.000E-03 8.582E+00 6.250E-03 2.489E+03 0.000E+00 0.000E+00 2.497E+03 2.489E+03 
1.185E-03 8.418E+00 7.951E-03 1.757E+03 0.000E+00 0.000E+00 1.765E+03 1.757E+03 
1.185E-03 8.418E+00 7.951E-03 1.902E+03 0.000E+00 0.000E+00 1.910E+03 1.902E+03 
1.201E-03 8.402E+00 8.098E-03 2.615E+03 0.000E+00 0.000E+00 2.623E+03 2.615E+03 
1.217E-03 8.387E+00 8.248E-03 3.664E+03 0.000E+00 0.000E+00 3.673E+03 3.664E+03 
1.217E-03 8.387E+00 8.248E-03 4.345E+03 0.000E+00 0.000E+00 4.354E+03 4.345E+03 
1.500E-03 8.134E+00 1.086E-02 4.382E+03 0.000E+00 0.000E+00 4.390E+03 4.382E+03 
1.544E-03 8.093E+00 1.127E-02 4.083E+03 0.000E+00 0.000E+00 4.091E+03 4.083E+03 
1.544E-03 8.093E+00 1.127E-02 4.691E+03 0.000E+00 0.000E+00 4.699E+03 4.691E+03 
1.615E-03 8.026E+00 1.193E-02 4.228E+03 0.000E+00 0.000E+00 4.236E+03 4.228E+03 
1.688E-03 7.957E+00 1.262E-02 3.811E+03 0.000E+00 0.000E+00 3.819E+03 3.811E+03 
1.688E-03 7.957E+00 1.262E-02 4.037E+03 0.000E+00 0.000E+00 4.045E+03 4.037E+03 
1.782E-03 7.871E+00 1.348E-02 3.576E+03 0.000E+00 0.000E+00 3.584E+03 3.576E+03 
1.881E-03 7.781E+00 1.439E-02 3.167E+03 0.000E+00 0.000E+00 3.175E+03 3.167E+03 
1.881E-03 7.781E+00 1.439E-02 3.302E+03 0.000E+00 0.000E+00 3.310E+03 3.302E+03 
2.000E-03 7.668E+00 1.550E-02 2.875E+03 0.000E+00 0.000E+00 2.883E+03 2.875E+03 
2.472E-03 7.233E+00 1.985E-02 1.737E+03 0.000E+00 0.000E+00 1.744E+03 1.737E+03 
2.472E-03 7.233E+00 1.985E-02 1.894E+03 0.000E+00 0.000E+00 1.901E+03 1.894E+03 
3.000E-03 6.769E+00 2.452E-02 1.198E+03 0.000E+00 0.000E+00 1.205E+03 1.198E+03 
4.000E-03 5.951E+00 3.266E-02 5.857E+02 0.000E+00 0.000E+00 5.917E+02 5.857E+02 
5.000E-03 5.241E+00 3.980E-02 3.318E+02 0.000E+00 0.000E+00 3.371E+02 3.318E+02 
6.000E-03 4.643E+00 4.599E-02 2.071E+02 0.000E+00 0.000E+00 2.118E+02 2.071E+02 
7.000E-03 4.138E+00 5.136E-02 1.383E+02 0.000E+00 0.000E+00 1.425E+02 1.384E+02 
7.243E-03 4.025E+00 5.258E-02 1.265E+02 0.000E+00 0.000E+00 1.306E+02 1.266E+02 
7.243E-03 4.025E+00 5.258E-02 3.272E+02 0.000E+00 0.000E+00 3.313E+02 3.272E+02 
7.579E-03 3.874E+00 5.422E-02 2.910E+02 0.000E+00 0.000E+00 2.949E+02 2.910E+02 
7.930E-03 3.731E+00 5.582E-02 2.588E+02 0.000E+00 0.000E+00 2.625E+02 2.588E+02 
7.930E-03 3.731E+00 5.582E-02 3.498E+02 0.000E+00 0.000E+00 3.536E+02 3.499E+02 
8.000E-03 3.705E+00 5.612E-02 3.433E+02 0.000E+00 0.000E+00 3.470E+02 3.433E+02 
8.376E-03 3.560E+00 5.777E-02 3.060E+02 0.000E+00 0.000E+00 3.096E+02 3.060E+02 
8.376E-03 3.560E+00 5.777E-02 3.523E+02 0.000E+00 0.000E+00 3.560E+02 3.524E+02 
9.000E-03 3.333E+00 6.040E-02 2.939E+02 0.000E+00 0.000E+00 2.973E+02 2.940E+02 
1.000E-02 3.015E+00 6.425E-02 2.254E+02 0.000E+00 0.000E+00 2.285E+02 2.254E+02 
1.100E-02 2.739E+00 6.780E-02 1.751E+02 0.000E+00 0.000E+00 1.779E+02 1.752E+02 
1.300E-02 2.291E+00 7.413E-02 1.125E+02 0.000E+00 0.000E+00 1.148E+02 1.126E+02 
1.500E-02 1.952E+00 7.961E-02 7.699E+01 0.000E+00 0.000E+00 7.902E+01 7.707E+01 
1.700E-02 1.690E+00 8.437E-02 5.490E+01 0.000E+00 0.000E+00 5.668E+01 5.499E+01 
1.900E-02 1.482E+00 8.850E-02 4.065E+01 0.000E+00 0.000E+00 4.222E+01 4.074E+01 
2.000E-02 1.393E+00 9.034E-02 3.539E+01 0.000E+00 0.000E+00 3.687E+01 3.548E+01 
2.100E-02 1.312E+00 9.205E-02 3.095E+01 0.000E+00 0.000E+00 3.236E+01 3.104E+01 
2.300E-02 1.170E+00 9.509E-02 2.411E+01 0.000E+00 0.000E+00 2.537E+01 2.420E+01 
2.500E-02 1.050E+00 9.772E-02 1.917E+01 0.000E+00 0.000E+00 2.032E+01 1.927E+01 
2.700E-02 9.467E-01 1.000E-01 1.552E+01 0.000E+00 0.000E+00 1.656E+01 1.562E+01 
2.900E-02 8.580E-01 1.020E-01 1.275E+01 0.000E+00 0.000E+00 1.371E+01 1.285E+01 
3.000E-02 8.180E-01 1.029E-01 1.162E+01 0.000E+00 0.000E+00 1.254E+01 1.172E+01 
3.100E-02 7.807E-01 1.037E-01 1.060E+01 0.000E+00 0.000E+00 1.149E+01 1.071E+01 
3.300E-02 7.130E-01 1.052E-01 8.909E+00 0.000E+00 0.000E+00 9.727E+00 9.014E+00 
3.500E-02 6.535E-01 1.065E-01 7.562E+00 0.000E+00 0.000E+00 8.322E+00 7.668E+00 
3.700E-02 6.008E-01 1.076E-01 6.477E+00 0.000E+00 0.000E+00 7.186E+00 6.585E+00 
3.900E-02 5.540E-01 1.086E-01 5.594E+00 0.000E+00 0.000E+00 6.256E+00 5.702E+00 
4.000E-02 5.326E-01 1.091E-01 5.213E+00 0.000E+00 0.000E+00 5.854E+00 5.322E+00 
4.100E-02 5.123E-01 1.095E-01 4.863E+00 0.000E+00 0.000E+00 5.485E+00 4.973E+00 
4.300E-02 4.752E-01 1.102E-01 4.254E+00 0.000E+00 0.000E+00 4.840E+00 4.364E+00 
4.500E-02 4.424E-01 1.108E-01 3.744E+00 0.000E+00 0.000E+00 4.297E+00 3.855E+00 
4.700E-02 4.136E-01 1.114E-01 3.314E+00 0.000E+00 0.000E+00 3.839E+00 3.425E+00 
4.900E-02 3.885E-01 1.119E-01 2.947E+00 0.000E+00 0.000E+00 3.448E+00 3.059E+00 
5.000E-02 3.771E-01 1.121E-01 2.785E+00 0.000E+00 0.000E+00 3.274E+00 2.897E+00 
5.024E-02 3.745E-01 1.122E-01 2.747E+00 0.000E+00 0.000E+00 3.234E+00 2.860E+00 
5.024E-02 3.745E-01 1.122E-01 1.506E+01 0.000E+00 0.000E+00 1.555E+01 1.518E+01 
5.100E-02 3.663E-01 1.124E-01 1.448E+01 0.000E+00 0.000E+00 1.495E+01 1.459E+01 
5.300E-02 3.455E-01 1.128E-01 1.308E+01 0.000E+00 0.000E+00 1.353E+01 1.319E+01 
5.500E-02 3.260E-01 1.130E-01 1.186E+01 0.000E+00 0.000E+00 1.229E+01 1.197E+01 
5.700E-02 3.079E-01 1.133E-01 1.079E+01 0.000E+00 0.000E+00 1.121E+01 1.090E+01 
5.900E-02 2.911E-01 1.134E-01 9.846E+00 0.000E+00 0.000E+00 1.025E+01 9.959E+00 
6.000E-02 2.833E-01 1.135E-01 9.417E+00 0.000E+00 0.000E+00 9.814E+00 9.531E+00 
6.100E-02 2.758E-01 1.136E-01 9.014E+00 0.000E+00 0.000E+00 9.403E+00 9.128E+00 
6.300E-02 2.617E-01 1.137E-01 8.276E+00 0.000E+00 0.000E+00 8.651E+00 8.390E+00 
6.500E-02 2.488E-01 1.137E-01 7.618E+00 0.000E+00 0.000E+00 7.981E+00 7.732E+00 
6.700E-02 2.368E-01 1.138E-01 7.030E+00 0.000E+00 0.000E+00 7.380E+00 7.143E+00 
6.900E-02 2.257E-01 1.138E-01 6.501E+00 0.000E+00 0.000E+00 6.841E+00 6.615E+00 
7.100E-02 2.155E-01 1.138E-01 6.025E+00 0.000E+00 0.000E+00 6.354E+00 6.139E+00 
7.300E-02 2.059E-01 1.138E-01 5.595E+00 0.000E+00 0.000E+00 5.914E+00 5.708E+00 
7.500E-02 1.969E-01 1.137E-01 5.204E+00 0.000E+00 0.000E+00 5.515E+00 5.318E+00 
7.700E-02 1.885E-01 1.137E-01 4.850E+00 0.000E+00 0.000E+00 5.152E+00 4.963E+00 
7.900E-02 1.806E-01 1.136E-01 4.527E+00 0.000E+00 0.000E+00 4.821E+00 4.640E+00 
8.000E-02 1.768E-01 1.135E-01 4.376E+00 0.000E+00 0.000E+00 4.666E+00 4.489E+00 
8.100E-02 1.732E-01 1.135E-01 4.232E+00 0.000E+00 0.000E+00 4.518E+00 4.345E+00 
8.300E-02 1.662E-01 1.133E-01 3.961E+00 0.000E+00 0.000E+00 4.241E+00 4.075E+00 
8.500E-02 1.596E-01 1.132E-01 3.714E+00 0.000E+00 0.000E+00 3.986E+00 3.827E+00 
8.700E-02 1.534E-01 1.130E-01 3.486E+00 0.000E+00 0.000E+00 3.753E+00 3.599E+00 
8.900E-02 1.475E-01 1.129E-01 3.277E+00 0.000E+00 0.000E+00 3.537E+00 3.390E+00 
9.100E-02 1.419E-01 1.127E-01 3.084E+00 0.000E+00 0.000E+00 3.339E+00 3.197E+00 
9.300E-02 1.367E-01 1.125E-01 2.906E+00 0.000E+00 0.000E+00 3.155E+00 3.018E+00 
9.500E-02 1.317E-01 1.123E-01 2.741E+00 0.000E+00 0.000E+00 2.985E+00 2.854E+00 
9.700E-02 1.270E-01 1.121E-01 2.589E+00 0.000E+00 0.000E+00 2.828E+00 2.701E+00 
9.900E-02 1.225E-01 1.119E-01 2.448E+00 0.000E+00 0.000E+00 2.682E+00 2.560E+00 
1.000E-01 1.204E-01 1.118E-01 2.381E+00 0.000E+00 0.000E+00 2.613E+00 2.493E+00 
1.010E-01 1.183E-01 1.116E-01 2.317E+00 0.000E+00 0.000E+00 2.547E+00 2.429E+00 
1.030E-01 1.143E-01 1.114E-01 2.195E+00 0.000E+00 0.000E+00 2.421E+00 2.307E+00 
1.050E-01 1.105E-01 1.112E-01 2.082E+00 0.000E+00 0.000E+00 2.304E+00 2.193E+00 
1.070E-01 1.069E-01 1.109E-01 1.976E+00 0.000E+00 0.000E+00 2.194E+00 2.087E+00 
1.090E-01 1.035E-01 1.107E-01 1.878E+00 0.000E+00 0.000E+00 2.092E+00 1.989E+00 
1.110E-01 1.002E-01 1.104E-01 1.786E+00 0.000E+00 0.000E+00 1.997E+00 1.896E+00 
1.130E-01 9.710E-02 1.102E-01 1.700E+00 0.000E+00 0.000E+00 1.907E+00 1.810E+00 
1.150E-01 9.414E-02 1.099E-01 1.619E+00 0.000E+00 0.000E+00 1.823E+00 1.729E+00 
1.170E-01 9.131E-02 1.096E-01 1.544E+00 0.000E+00 0.000E+00 1.745E+00 1.654E+00 
1.190E-01 8.860E-02 1.094E-01 1.473E+00 0.000E+00 0.000E+00 1.671E+00 1.583E+00 
1.210E-01 8.602E-02 1.091E-01 1.407E+00 0.000E+00 0.000E+00 1.602E+00 1.516E+00 
1.230E-01 8.355E-02 1.088E-01 1.344E+00 0.000E+00 0.000E+00 1.537E+00 1.453E+00 
1.250E-01 8.119E-02 1.085E-01 1.285E+00 0.000E+00 0.000E+00 1.475E+00 1.394E+00 
1.270E-01 7.893E-02 1.083E-01 1.230E+00 0.000E+00 0.000E+00 1.417E+00 1.338E+00 
1.290E-01 7.677E-02 1.080E-01 1.178E+00 0.000E+00 0.000E+00 1.363E+00 1.286E+00 
1.310E-01 7.469E-02 1.077E-01 1.129E+00 0.000E+00 0.000E+00 1.311E+00 1.236E+00 
1.330E-01 7.270E-02 1.074E-01 1.082E+00 0.000E+00 0.000E+00 1.262E+00 1.189E+00 
1.350E-01 7.079E-02 1.072E-01 1.038E+00 0.000E+00 0.000E+00 1.216E+00 1.145E+00 
1.370E-01 6.896E-02 1.069E-01 9.965E-01 0.000E+00 0.000E+00 1.172E+00 1.103E+00 
1.390E-01 6.719E-02 1.066E-01 9.572E-01 0.000E+00 0.000E+00 1.131E+00 1.064E+00 
1.410E-01 6.550E-02 1.063E-01 9.199E-01 0.000E+00 0.000E+00 1.092E+00 1.026E+00 
1.430E-01 6.387E-02 1.060E-01 8.846E-01 0.000E+00 0.000E+00 1.054E+00 9.906E-01 
1.450E-01 6.230E-02 1.058E-01 8.510E-01 0.000E+00 0.000E+00 1.019E+00 9.568E-01 
1.470E-01 6.079E-02 1.055E-01 8.192E-01 0.000E+00 0.000E+00 9.855E-01 9.247E-01 
1.490E-01 5.934E-02 1.052E-01 7.890E-01 0.000E+00 0.000E+00 9.535E-01 8.942E-01 
1.500E-01 5.863E-02 1.051E-01 7.745E-01 0.000E+00 0.000E+00 9.381E-01 8.795E-01 
1.510E-01 5.793E-02 1.049E-01 7.603E-01 0.000E+00 0.000E+00 9.231E-01 8.652E-01 
1.530E-01 5.658E-02 1.046E-01 7.329E-01 0.000E+00 0.000E+00 8.942E-01 8.376E-01 
1.550E-01 5.528E-02 1.044E-01 7.069E-01 0.000E+00 0.000E+00 8.666E-01 8.113E-01 
1.570E-01 5.402E-02 1.041E-01 6.822E-01 0.000E+00 0.000E+00 8.403E-01 7.862E-01 
1.590E-01 5.281E-02 1.038E-01 6.585E-01 0.000E+00 0.000E+00 8.152E-01 7.623E-01 
1.610E-01 5.163E-02 1.035E-01 6.360E-01 0.000E+00 0.000E+00 7.912E-01 7.396E-01 
1.630E-01 5.050E-02 1.032E-01 6.146E-01 0.000E+00 0.000E+00 7.683E-01 7.178E-01 
1.650E-01 4.940E-02 1.030E-01 5.941E-01 0.000E+00 0.000E+00 7.464E-01 6.970E-01 
1.670E-01 4.834E-02 1.027E-01 5.745E-01 0.000E+00 0.000E+00 7.255E-01 6.772E-01 
1.690E-01 4.731E-02 1.024E-01 5.558E-01 0.000E+00 0.000E+00 7.055E-01 6.582E-01 
1.710E-01 4.632E-02 1.021E-01 5.379E-01 0.000E+00 0.000E+00 6.864E-01 6.400E-01 
1.730E-01 4.536E-02 1.019E-01 5.208E-01 0.000E+00 0.000E+00 6.680E-01 6.226E-01 
1.750E-01 4.443E-02 1.016E-01 5.044E-01 0.000E+00 0.000E+00 6.504E-01 6.060E-01 
1.770E-01 4.352E-02 1.013E-01 4.887E-01 0.000E+00 0.000E+00 6.336E-01 5.900E-01 
1.790E-01 4.265E-02 1.011E-01 4.737E-01 0.000E+00 0.000E+00 6.174E-01 5.748E-01 
1.810E-01 4.180E-02 1.008E-01 4.593E-01 0.000E+00 0.000E+00 6.019E-01 5.601E-01 
1.830E-01 4.097E-02 1.005E-01 4.455E-01 0.000E+00 0.000E+00 5.870E-01 5.460E-01 
1.850E-01 4.017E-02 1.003E-01 4.322E-01 0.000E+00 0.000E+00 5.727E-01 5.325E-01 
1.870E-01 3.940E-02 1.000E-01 4.195E-01 0.000E+00 0.000E+00 5.589E-01 5.195E-01 
1.890E-01 3.864E-02 9.975E-02 4.073E-01 0.000E+00 0.000E+00 5.457E-01 5.070E-01 
1.910E-01 3.791E-02 9.949E-02 3.956E-01 0.000E+00 0.000E+00 5.330E-01 4.951E-01 
1.930E-01 3.720E-02 9.923E-02 3.843E-01 0.000E+00 0.000E+00 5.207E-01 4.835E-01 
1.950E-01 3.651E-02 9.897E-02 3.735E-01 0.000E+00 0.000E+00 5.089E-01 4.724E-01 
1.970E-01 3.583E-02 9.871E-02 3.630E-01 0.000E+00 0.000E+00 4.976E-01 4.618E-01 
1.990E-01 3.518E-02 9.846E-02 3.530E-01 0.000E+00 0.000E+00 4.867E-01 4.515E-01 
2.000E-01 3.486E-02 9.833E-02 3.482E-01 0.000E+00 0.000E+00 4.813E-01 4.465E-01 
3.000E-01 1.641E-02 8.730E-02 1.148E-01 0.000E+00 0.000E+00 2.185E-01 2.021E-01 
4.000E-01 9.494E-03 7.901E-02 5.385E-02 0.000E+00 0.000E+00 1.424E-01 1.329E-01 
5.000E-01 6.175E-03 7.257E-02 3.072E-02 0.000E+00 0.000E+00 1.095E-01 1.033E-01 
6.000E-01 4.337E-03 6.737E-02 1.983E-02 0.000E+00 0.000E+00 9.153E-02 8.720E-02 
8.000E-01 2.471E-03 5.943E-02 1.036E-02 0.000E+00 0.000E+00 7.225E-02 6.978E-02 
1.000E+00 1.593E-03 5.355E-02 6.486E-03 0.000E+00 0.000E+00 6.163E-02 6.003E-02 
1.022E+00 1.526E-03 5.296E-02 6.206E-03 0.000E+00 0.000E+00 6.069E-02 5.916E-02 
1.250E+00 1.025E-03 4.792E-02 4.184E-03 2.160E-04 0.000E+00 5.335E-02 5.232E-02 
1.500E+00 7.140E-04 4.361E-02 2.988E-03 1.003E-03 0.000E+00 4.832E-02 4.760E-02 
2.000E+00 4.028E-04 3.724E-02 1.813E-03 3.245E-03 0.000E+00 4.271E-02 4.230E-02 
2.044E+00 3.857E-04 3.679E-02 1.749E-03 3.455E-03 0.000E+00 4.238E-02 4.199E-02 
3.000E+00 1.795E-04 2.932E-02 9.557E-04 7.823E-03 1.025E-05 3.829E-02 3.811E-02 
4.000E+00 1.011E-04 2.447E-02 6.299E-04 1.175E-02 4.182E-05 3.700E-02 3.689E-02 
5.000E+00 6.472E-05 2.114E-02 4.640E-04 1.511E-02 8.324E-05 3.685E-02 3.679E-02 
6.000E+00 4.496E-05 1.868E-02 3.650E-04 1.800E-02 1.277E-04 3.722E-02 3.718E-02 
7.000E+00 3.302E-05 1.679E-02 2.999E-04 2.056E-02 1.719E-04 3.786E-02 3.782E-02 
8.000E+00 2.529E-05 1.528E-02 2.540E-04 2.286E-02 2.148E-04 3.864E-02 3.861E-02 
9.000E+00 1.999E-05 1.405E-02 2.200E-04 2.495E-02 2.558E-04 3.949E-02 3.947E-02 
1.000E+01 1.619E-05 1.302E-02 1.939E-04 2.686E-02 2.947E-04 4.038E-02 4.037E-02 
1.100E+01 1.338E-05 1.214E-02 1.732E-04 2.863E-02 3.315E-04 4.129E-02 4.128E-02 
1.200E+01 1.124E-05 1.139E-02 1.564E-04 3.027E-02 3.661E-04 4.219E-02 4.218E-02 
1.300E+01 9.580E-06 1.073E-02 1.426E-04 3.180E-02 3.988E-04 4.308E-02 4.307E-02 
1.400E+01 8.260E-06 1.015E-02 1.310E-04 3.322E-02 4.299E-04 4.394E-02 4.393E-02 
1.500E+01 7.194E-06 9.636E-03 1.211E-04 3.455E-02 4.592E-04 4.478E-02 4.477E-02 
1.600E+01 6.326E-06 9.175E-03 1.126E-04 3.576E-02 4.873E-04 4.554E-02 4.554E-02 
1.800E+01 4.996E-06 8.387E-03 9.864E-05 3.798E-02 5.391E-04 4.701E-02 4.700E-02 
2.000E+01 4.047E-06 7.735E-03 8.778E-05 3.996E-02 5.861E-04 4.837E-02 4.837E-02 
2.200E+01 3.344E-06 7.183E-03 7.905E-05 4.177E-02 6.293E-04 4.967E-02 4.966E-02 
2.400E+01 2.811E-06 6.713E-03 7.188E-05 4.338E-02 6.688E-04 5.084E-02 5.084E-02 
2.600E+01 2.395E-06 6.303E-03 6.590E-05 4.489E-02 7.055E-04 5.197E-02 5.197E-02 
2.800E+01 2.065E-06 5.946E-03 6.083E-05 4.624E-02 7.392E-04 5.299E-02 5.299E-02 
3.000E+01 1.799E-06 5.631E-03 5.650E-05 4.752E-02 7.707E-04 5.398E-02 5.397E-02 
4.000E+01 1.012E-06 4.474E-03 4.163E-05 5.266E-02 9.016E-04 5.808E-02 5.808E-02 
5.000E+01 6.478E-07 3.735E-03 3.293E-05 5.646E-02 1.001E-03 6.123E-02 6.123E-02 
6.000E+01 4.499E-07 3.218E-03 2.725E-05 5.946E-02 1.079E-03 6.378E-02 6.378E-02 
8.000E+01 2.530E-07 2.538E-03 2.025E-05 6.383E-02 1.198E-03 6.759E-02 6.759E-02 
1.000E+02 1.619E-07 2.107E-03 1.611E-05 6.694E-02 1.285E-03 7.034E-02 7.034E-02 
1.500E+02 7.198E-08 1.500E-03 1.066E-05 7.190E-02 1.429E-03 7.484E-02 7.484E-02 
2.000E+02 4.047E-08 1.176E-03 7.966E-06 7.484E-02 1.520E-03 7.755E-02 7.755E-02 
3.000E+02 1.799E-08 8.336E-04 5.290E-06 7.827E-02 1.632E-03 8.074E-02 8.074E-02 
4.000E+02 1.012E-08 6.530E-04 3.962E-06 8.027E-02 1.699E-03 8.262E-02 8.262E-02 
5.000E+02 6.478E-09 5.405E-04 3.165E-06 8.156E-02 1.746E-03 8.385E-02 8.385E-02 
6.000E+02 4.496E-09 4.629E-04 2.635E-06 8.247E-02 1.780E-03 8.472E-02 8.472E-02 
8.000E+02 2.530E-09 3.614E-04 1.975E-06 8.370E-02 1.827E-03 8.589E-02 8.589E-02 
1.000E+03 1.619E-09 2.974E-04 1.579E-06 8.451E-02 1.858E-03 8.667E-02 8.667E-02 
1.500E+03 7.198E-10 2.076E-04 1.052E-06 8.567E-02 1.905E-03 8.778E-02 8.778E-02 
2.000E+03 4.047E-10 1.607E-04 7.886E-07 8.632E-02 1.932E-03 8.841E-02 8.841E-02 
3.000E+03 1.799E-10 1.118E-04 5.255E-07 8.700E-02 1.961E-03 8.907E-02 8.907E-02 
4.000E+03 1.012E-10 8.626E-05 3.940E-07 8.734E-02 1.978E-03 8.940E-02 8.940E-02 
5.000E+03 6.478E-11 7.051E-05 3.152E-07 8.758E-02 1.988E-03 8.963E-02 8.963E-02 
6.000E+03 4.496E-11 5.981E-05 2.626E-07 8.775E-02 1.996E-03 8.980E-02 8.980E-02 
8.000E+03 2.530E-11 4.609E-05 1.970E-07 8.795E-02 2.006E-03 9.000E-02 9.000E-02 
1.000E+04 1.619E-11 3.762E-05 1.576E-07 8.809E-02 2.012E-03 9.014E-02 9.014E-02 
1.500E+04 7.198E-12 2.600E-05 1.050E-07 8.826E-02 2.021E-03 9.030E-02 9.030E-02 
2.000E+04 4.047E-12 1.999E-05 7.877E-08 8.836E-02 2.026E-03 9.040E-02 9.040E-02 
3.000E+04 1.799E-12 1.378E-05 5.252E-08 8.846E-02 2.030E-03 9.051E-02 9.051E-02 
4.000E+04 1.012E-12 1.058E-05 3.940E-08 8.853E-02 2.033E-03 9.057E-02 9.057E-02 
5.000E+04 6.478E-13 8.618E-06 3.151E-08 8.856E-02 2.035E-03 9.061E-02 9.061E-02 
6.000E+04 4.496E-13 7.286E-06 2.626E-08 8.860E-02 2.037E-03 9.064E-02 9.064E-02 
8.000E+04 2.530E-13 5.587E-06 1.969E-08 8.860E-02 2.038E-03 9.064E-02 9.064E-02 
1.000E+05 1.619E-13 4.545E-06 1.575E-08 8.863E-02 2.039E-03 9.067E-02 9.067E-02 