Photon    Coherent Incoher. Photoel. Nuclear  Electron Tot. w/  Tot. wo/ 
Energy    Scatter. Scatter. Absorb.  Pr. Prd. Pr. Prd. Coherent Coherent 

1.000E-03 8.582E+00 6.250E-03 2.489E+03 0.000E+00 0.000E+00 2.497E+03 2.489E+03 
1.185E-03 8.418E+00 7.951E-03 1.757E+03 0.000E+00 0.000E+00 1.765E+03 1.757E+03 
1.185E-03 8.418E+00 7.951E-03 1.902E+03 0.000E+00 0.000E+00 1.910E+03 1.902E+03 
1.201E-03 8.402E+00 8.098E-03 2.615E+03 0.000E+00 0.000E+00 2.623E+03 2.615E+03 
1.217E-03 8.387E+00 8.248E-03 3.664E+03 0.000E+00 0.000E+00 3.673E+03 3.664E+03 
1.217E-03 8.387E+00 8.248E-03 4.345E+03 0.000E+00 0.000E+00 4.354E+03 4.345E+03 
1.500E-03 8.134E+00 1.086E-02 4.382E+03 0.000E+00 0.000E+00 4.390E+03 4.382E+03 
1.544E-03 8.093E+00 1.127E-02 4.083E+03 0.000E+00 0.000E+00 4.091E+03 4.083E+03 
1.544E-03 8.093E+00 1.127E-02 4.691E+03 0.000E+00 0.000E+00 4.699E+03 4.691E+03 
1.615E-03 8.026E+00 1.193E-02 4.228E+03 0.000E+00 0.000E+00 4.236E+03 4.228E+03 
1.688E-03 7.957E+00 1.262E-02 3.811E+03 0.000E+00 0.000E+00 3.819E+03 3.811E+03 
1.688E-03 7.957E+00 1.262E-02 4.037E+03 0.000E+00 0.000E+00 4.045E+03 4.037E+03 
1.782E-03 7.871E+00 1.348E-02 3.576E+03 0.000E+00 0.000E+00 3.584E+03 3.576E+03 
1.881E-03 7.781E+00 1.439E-02 3.167E+03 0.000E+00 0.000E+00 3.175E+03 3.167E+03 
1.881E-03 7.781E+00 1.439E-02 3.302E+03 0.000E+00 0.000E+00 3.310E+03 3.302E+03 
2.000E-03 7.668E+00 1.550E-02 2.875E+03 0.000E+00 0.000E+00 2.883E+03 2.875E+03 
2.472E-03 7.233E+00 1.985E-02 1.737E+03 0.000E+00 0.000E+00 1.744E+03 1.737E+03 
2.472E-03 7.233E+00 1.985E-02 1.894E+03 0.000E+00 0.000E+00 1.901E+03 1.894E+03 
2.500E-03 7.208E+00 2.010E-02 1.844E+03 0.000E+00 0.000E+00 1.851E+03 1.844E+03 
3.000E-03 6.769E+00 2.452E-02 1.198E+03 0.000E+00 0.000E+00 1.205E+03 1.198E+03 
4.000E-03 5.951E+00 3.266E-02 5.857E+02 0.000E+00 0.000E+00 5.917E+02 5.857E+02 
5.000E-03 5.241E+00 3.980E-02 3.318E+02 0.000E+00 0.000E+00 3.371E+02 3.318E+02 
5.500E-03 4.929E+00 4.301E-02 2.594E+02 0.000E+00 0.000E+00 2.643E+02 2.594E+02 
6.000E-03 4.643E+00 4.599E-02 2.071E+02 0.000E+00 0.000E+00 2.118E+02 2.071E+02 
7.000E-03 4.138E+00 5.136E-02 1.383E+02 0.000E+00 0.000E+00 1.425E+02 1.384E+02 
7.243E-03 4.025E+00 5.258E-02 1.265E+02 0.000E+00 0.000E+00 1.306E+02 1.266E+02 
7.243E-03 4.025E+00 5.258E-02 3.272E+02 0.000E+00 0.000E+00 3.313E+02 3.272E+02 
7.579E-03 3.874E+00 5.422E-02 2.910E+02 0.000E+00 0.000E+00 2.949E+02 2.910E+02 
7.930E-03 3.731E+00 5.582E-02 2.588E+02 0.000E+00 0.000E+00 2.625E+02 2.588E+02 
7.930E-03 3.731E+00 5.582E-02 3.498E+02 0.000E+00 0.000E+00 3.536E+02 3.499E+02 
8.000E-03 3.705E+00 5.612E-02 3.433E+02 0.000E+00 0.000E+00 3.470E+02 3.433E+02 
8.376E-03 3.560E+00 5.777E-02 3.060E+02 0.000E+00 0.000E+00 3.096E+02 3.060E+02 
8.376E-03 3.560E+00 5.777E-02 3.523E+02 0.000E+00 0.000E+00 3.560E+02 3.524E+02 
8.500E-03 3.513E+00 5.831E-02 3.395E+02 0.000E+00 0.000E+00 3.431E+02 3.395E+02 
1.000E-02 3.015E+00 6.425E-02 2.254E+02 0.000E+00 0.000E+00 2.285E+02 2.254E+02 
1.150E-02 2.615E+00 6.947E-02 1.556E+02 0.000E+00 0.000E+00 1.583E+02 1.557E+02 
1.300E-02 2.291E+00 7.413E-02 1.125E+02 0.000E+00 0.000E+00 1.148E+02 1.126E+02 
1.450E-02 2.028E+00 7.831E-02 8.423E+01 0.000E+00 0.000E+00 8.633E+01 8.430E+01 
1.500E-02 1.952E+00 7.961E-02 7.699E+01 0.000E+00 0.000E+00 7.902E+01 7.707E+01 
1.600E-02 1.813E+00 8.208E-02 6.467E+01 0.000E+00 0.000E+00 6.657E+01 6.475E+01 
1.750E-02 1.634E+00 8.546E-02 5.077E+01 0.000E+00 0.000E+00 5.249E+01 5.085E+01 
1.900E-02 1.482E+00 8.850E-02 4.065E+01 0.000E+00 0.000E+00 4.222E+01 4.074E+01 
2.000E-02 1.393E+00 9.034E-02 3.539E+01 0.000E+00 0.000E+00 3.687E+01 3.548E+01 
2.050E-02 1.351E+00 9.121E-02 3.307E+01 0.000E+00 0.000E+00 3.451E+01 3.316E+01 
2.200E-02 1.238E+00 9.363E-02 2.724E+01 0.000E+00 0.000E+00 2.857E+01 2.733E+01 
2.350E-02 1.138E+00 9.578E-02 2.272E+01 0.000E+00 0.000E+00 2.396E+01 2.282E+01 
2.500E-02 1.050E+00 9.772E-02 1.917E+01 0.000E+00 0.000E+00 2.032E+01 1.927E+01 
2.650E-02 9.710E-01 9.946E-02 1.634E+01 0.000E+00 0.000E+00 1.741E+01 1.644E+01 
2.800E-02 9.008E-01 1.010E-01 1.404E+01 0.000E+00 0.000E+00 1.504E+01 1.414E+01 
2.950E-02 8.377E-01 1.024E-01 1.217E+01 0.000E+00 0.000E+00 1.311E+01 1.227E+01 
3.000E-02 8.180E-01 1.029E-01 1.162E+01 0.000E+00 0.000E+00 1.254E+01 1.172E+01 
3.100E-02 7.807E-01 1.037E-01 1.060E+01 0.000E+00 0.000E+00 1.149E+01 1.071E+01 
3.250E-02 7.292E-01 1.049E-01 9.296E+00 0.000E+00 0.000E+00 1.013E+01 9.401E+00 
3.400E-02 6.823E-01 1.059E-01 8.198E+00 0.000E+00 0.000E+00 8.986E+00 8.304E+00 
3.550E-02 6.397E-01 1.068E-01 7.269E+00 0.000E+00 0.000E+00 8.015E+00 7.376E+00 
3.700E-02 6.008E-01 1.076E-01 6.477E+00 0.000E+00 0.000E+00 7.186E+00 6.585E+00 
3.850E-02 5.652E-01 1.084E-01 5.798E+00 0.000E+00 0.000E+00 6.472E+00 5.907E+00 
4.000E-02 5.326E-01 1.091E-01 5.213E+00 0.000E+00 0.000E+00 5.854E+00 5.322E+00 
4.150E-02 5.026E-01 1.096E-01 4.700E+00 0.000E+00 0.000E+00 5.313E+00 4.810E+00 
4.300E-02 4.752E-01 1.102E-01 4.254E+00 0.000E+00 0.000E+00 4.840E+00 4.364E+00 
4.450E-02 4.502E-01 1.106E-01 3.863E+00 0.000E+00 0.000E+00 4.424E+00 3.974E+00 
4.600E-02 4.276E-01 1.111E-01 3.520E+00 0.000E+00 0.000E+00 4.059E+00 3.631E+00 
4.750E-02 4.070E-01 1.115E-01 3.216E+00 0.000E+00 0.000E+00 3.735E+00 3.328E+00 
4.900E-02 3.885E-01 1.119E-01 2.947E+00 0.000E+00 0.000E+00 3.448E+00 3.059E+00 
5.000E-02 3.771E-01 1.121E-01 2.785E+00 0.000E+00 0.000E+00 3.274E+00 2.897E+00 
5.024E-02 3.745E-01 1.122E-01 2.747E+00 0.000E+00 0.000E+00 3.234E+00 2.860E+00 
5.024E-02 3.745E-01 1.122E-01 1.506E+01 0.000E+00 0.000E+00 1.555E+01 1.518E+01 
5.050E-02 3.717E-01 1.123E-01 1.486E+01 0.000E+00 0.000E+00 1.534E+01 1.497E+01 
5.200E-02 3.558E-01 1.126E-01 1.375E+01 0.000E+00 0.000E+00 1.422E+01 1.386E+01 
5.350E-02 3.405E-01 1.128E-01 1.275E+01 0.000E+00 0.000E+00 1.321E+01 1.287E+01 
5.500E-02 3.260E-01 1.130E-01 1.186E+01 0.000E+00 0.000E+00 1.229E+01 1.197E+01 
5.650E-02 3.123E-01 1.132E-01 1.104E+01 0.000E+00 0.000E+00 1.147E+01 1.115E+01 
5.800E-02 2.993E-01 1.134E-01 1.030E+01 0.000E+00 0.000E+00 1.071E+01 1.041E+01 
5.950E-02 2.871E-01 1.135E-01 9.628E+00 0.000E+00 0.000E+00 1.003E+01 9.742E+00 
6.000E-02 2.833E-01 1.135E-01 9.417E+00 0.000E+00 0.000E+00 9.814E+00 9.531E+00 
6.100E-02 2.758E-01 1.136E-01 9.014E+00 0.000E+00 0.000E+00 9.403E+00 9.128E+00 
6.250E-02 2.651E-01 1.136E-01 8.453E+00 0.000E+00 0.000E+00 8.831E+00 8.566E+00 
6.400E-02 2.551E-01 1.137E-01 7.938E+00 0.000E+00 0.000E+00 8.307E+00 8.052E+00 
6.550E-02 2.457E-01 1.137E-01 7.465E+00 0.000E+00 0.000E+00 7.824E+00 7.579E+00 
6.700E-02 2.368E-01 1.138E-01 7.030E+00 0.000E+00 0.000E+00 7.380E+00 7.143E+00 
6.850E-02 2.284E-01 1.138E-01 6.628E+00 0.000E+00 0.000E+00 6.970E+00 6.742E+00 
7.000E-02 2.205E-01 1.138E-01 6.257E+00 0.000E+00 0.000E+00 6.591E+00 6.371E+00 
7.150E-02 2.130E-01 1.138E-01 5.913E+00 0.000E+00 0.000E+00 6.240E+00 6.027E+00 
7.300E-02 2.059E-01 1.138E-01 5.595E+00 0.000E+00 0.000E+00 5.914E+00 5.708E+00 
7.450E-02 1.991E-01 1.137E-01 5.298E+00 0.000E+00 0.000E+00 5.611E+00 5.412E+00 
7.600E-02 1.926E-01 1.137E-01 5.023E+00 0.000E+00 0.000E+00 5.329E+00 5.137E+00 
7.750E-02 1.865E-01 1.136E-01 4.766E+00 0.000E+00 0.000E+00 5.066E+00 4.880E+00 
7.900E-02 1.806E-01 1.136E-01 4.527E+00 0.000E+00 0.000E+00 4.821E+00 4.640E+00 
8.000E-02 1.768E-01 1.135E-01 4.376E+00 0.000E+00 0.000E+00 4.666E+00 4.489E+00 
8.050E-02 1.750E-01 1.135E-01 4.303E+00 0.000E+00 0.000E+00 4.591E+00 4.416E+00 
8.200E-02 1.696E-01 1.134E-01 4.094E+00 0.000E+00 0.000E+00 4.377E+00 4.207E+00 
8.350E-02 1.645E-01 1.133E-01 3.897E+00 0.000E+00 0.000E+00 4.175E+00 4.011E+00 
8.500E-02 1.596E-01 1.132E-01 3.714E+00 0.000E+00 0.000E+00 3.986E+00 3.827E+00 
8.650E-02 1.549E-01 1.131E-01 3.541E+00 0.000E+00 0.000E+00 3.809E+00 3.654E+00 
8.800E-02 1.504E-01 1.130E-01 3.379E+00 0.000E+00 0.000E+00 3.643E+00 3.492E+00 
8.950E-02 1.461E-01 1.128E-01 3.227E+00 0.000E+00 0.000E+00 3.486E+00 3.340E+00 
9.100E-02 1.419E-01 1.127E-01 3.084E+00 0.000E+00 0.000E+00 3.339E+00 3.197E+00 
9.250E-02 1.379E-01 1.125E-01 2.949E+00 0.000E+00 0.000E+00 3.200E+00 3.062E+00 
9.400E-02 1.341E-01 1.124E-01 2.822E+00 0.000E+00 0.000E+00 3.069E+00 2.934E+00 
9.550E-02 1.305E-01 1.122E-01 2.702E+00 0.000E+00 0.000E+00 2.945E+00 2.814E+00 
9.700E-02 1.270E-01 1.121E-01 2.589E+00 0.000E+00 0.000E+00 2.828E+00 2.701E+00 
9.850E-02 1.236E-01 1.119E-01 2.482E+00 0.000E+00 0.000E+00 2.718E+00 2.594E+00 
1.000E-01 1.204E-01 1.118E-01 2.381E+00 0.000E+00 0.000E+00 2.613E+00 2.493E+00 
1.015E-01 1.173E-01 1.116E-01 2.286E+00 0.000E+00 0.000E+00 2.515E+00 2.397E+00 
1.030E-01 1.143E-01 1.114E-01 2.195E+00 0.000E+00 0.000E+00 2.421E+00 2.307E+00 
1.045E-01 1.115E-01 1.112E-01 2.110E+00 0.000E+00 0.000E+00 2.332E+00 2.221E+00 
1.060E-01 1.087E-01 1.110E-01 2.028E+00 0.000E+00 0.000E+00 2.248E+00 2.139E+00 
1.075E-01 1.060E-01 1.109E-01 1.951E+00 0.000E+00 0.000E+00 2.168E+00 2.062E+00 
1.090E-01 1.035E-01 1.107E-01 1.878E+00 0.000E+00 0.000E+00 2.092E+00 1.989E+00 
1.105E-01 1.010E-01 1.105E-01 1.808E+00 0.000E+00 0.000E+00 2.020E+00 1.919E+00 
1.120E-01 9.864E-02 1.103E-01 1.742E+00 0.000E+00 0.000E+00 1.951E+00 1.853E+00 
1.135E-01 9.635E-02 1.101E-01 1.679E+00 0.000E+00 0.000E+00 1.886E+00 1.789E+00 
1.150E-01 9.414E-02 1.099E-01 1.619E+00 0.000E+00 0.000E+00 1.823E+00 1.729E+00 
1.165E-01 9.200E-02 1.097E-01 1.562E+00 0.000E+00 0.000E+00 1.764E+00 1.672E+00 
1.180E-01 8.994E-02 1.095E-01 1.508E+00 0.000E+00 0.000E+00 1.707E+00 1.617E+00 
1.195E-01 8.795E-02 1.093E-01 1.456E+00 0.000E+00 0.000E+00 1.653E+00 1.565E+00 
1.210E-01 8.602E-02 1.091E-01 1.407E+00 0.000E+00 0.000E+00 1.602E+00 1.516E+00 
1.225E-01 8.416E-02 1.089E-01 1.359E+00 0.000E+00 0.000E+00 1.552E+00 1.468E+00 
1.240E-01 8.236E-02 1.087E-01 1.314E+00 0.000E+00 0.000E+00 1.505E+00 1.423E+00 
1.255E-01 8.062E-02 1.085E-01 1.271E+00 0.000E+00 0.000E+00 1.460E+00 1.380E+00 
1.270E-01 7.893E-02 1.083E-01 1.230E+00 0.000E+00 0.000E+00 1.417E+00 1.338E+00 
1.285E-01 7.730E-02 1.081E-01 1.191E+00 0.000E+00 0.000E+00 1.376E+00 1.299E+00 
1.300E-01 7.572E-02 1.079E-01 1.153E+00 0.000E+00 0.000E+00 1.336E+00 1.261E+00 
1.315E-01 7.419E-02 1.076E-01 1.117E+00 0.000E+00 0.000E+00 1.298E+00 1.224E+00 
1.330E-01 7.270E-02 1.074E-01 1.082E+00 0.000E+00 0.000E+00 1.262E+00 1.189E+00 
1.345E-01 7.126E-02 1.072E-01 1.049E+00 0.000E+00 0.000E+00 1.227E+00 1.156E+00 
1.360E-01 6.986E-02 1.070E-01 1.017E+00 0.000E+00 0.000E+00 1.194E+00 1.124E+00 
1.375E-01 6.851E-02 1.068E-01 9.865E-01 0.000E+00 0.000E+00 1.162E+00 1.093E+00 
1.390E-01 6.719E-02 1.066E-01 9.572E-01 0.000E+00 0.000E+00 1.131E+00 1.064E+00 
1.405E-01 6.592E-02 1.064E-01 9.290E-01 0.000E+00 0.000E+00 1.101E+00 1.035E+00 
1.420E-01 6.468E-02 1.062E-01 9.020E-01 0.000E+00 0.000E+00 1.073E+00 1.008E+00 
1.435E-01 6.347E-02 1.060E-01 8.760E-01 0.000E+00 0.000E+00 1.045E+00 9.820E-01 
1.450E-01 6.230E-02 1.058E-01 8.510E-01 0.000E+00 0.000E+00 1.019E+00 9.568E-01 
1.465E-01 6.116E-02 1.055E-01 8.270E-01 0.000E+00 0.000E+00 9.937E-01 9.326E-01 
1.480E-01 6.006E-02 1.053E-01 8.039E-01 0.000E+00 0.000E+00 9.693E-01 9.092E-01 
1.495E-01 5.898E-02 1.051E-01 7.817E-01 0.000E+00 0.000E+00 9.458E-01 8.868E-01 
1.500E-01 5.863E-02 1.051E-01 7.745E-01 0.000E+00 0.000E+00 9.381E-01 8.795E-01 
2.000E-01 3.486E-02 9.833E-02 3.482E-01 0.000E+00 0.000E+00 4.813E-01 4.465E-01 
3.000E-01 1.641E-02 8.730E-02 1.148E-01 0.000E+00 0.000E+00 2.185E-01 2.021E-01 
4.000E-01 9.494E-03 7.901E-02 5.385E-02 0.000E+00 0.000E+00 1.424E-01 1.329E-01 
5.000E-01 6.175E-03 7.257E-02 3.072E-02 0.000E+00 0.000E+00 1.095E-01 1.033E-01 
6.000E-01 4.337E-03 6.737E-02 1.983E-02 0.000E+00 0.000E+00 9.153E-02 8.720E-02 
8.000E-01 2.471E-03 5.943E-02 1.036E-02 0.000E+00 0.000E+00 7.225E-02 6.978E-02 
1.000E+00 1.593E-03 5.355E-02 6.486E-03 0.000E+00 0.000E+00 6.163E-02 6.003E-02 
1.022E+00 1.526E-03 5.296E-02 6.206E-03 0.000E+00 0.000E+00 6.069E-02 5.916E-02 
1.250E+00 1.025E-03 4.792E-02 4.184E-03 2.160E-04 0.000E+00 5.335E-02 5.232E-02 
1.500E+00 7.140E-04 4.361E-02 2.988E-03 1.003E-03 0.000E+00 4.832E-02 4.760E-02 
2.000E+00 4.028E-04 3.724E-02 1.813E-03 3.245E-03 0.000E+00 4.271E-02 4.230E-02 
2.044E+00 3.857E-04 3.679E-02 1.749E-03 3.455E-03 0.000E+00 4.238E-02 4.199E-02 
3.000E+00 1.795E-04 2.932E-02 9.557E-04 7.823E-03 1.025E-05 3.829E-02 3.811E-02 
4.000E+00 1.011E-04 2.447E-02 6.299E-04 1.175E-02 4.182E-05 3.700E-02 3.689E-02 
5.000E+00 6.472E-05 2.114E-02 4.640E-04 1.511E-02 8.324E-05 3.685E-02 3.679E-02 
6.000E+00 4.496E-05 1.868E-02 3.650E-04 1.800E-02 1.277E-04 3.722E-02 3.718E-02 
7.000E+00 3.302E-05 1.679E-02 2.999E-04 2.056E-02 1.719E-04 3.786E-02 3.782E-02 
8.000E+00 2.529E-05 1.528E-02 2.540E-04 2.286E-02 2.148E-04 3.864E-02 3.861E-02 
9.000E+00 1.999E-05 1.405E-02 2.200E-04 2.495E-02 2.558E-04 3.949E-02 3.947E-02 
1.000E+01 1.619E-05 1.302E-02 1.939E-04 2.686E-02 2.947E-04 4.038E-02 4.037E-02 
1.100E+01 1.338E-05 1.214E-02 1.732E-04 2.863E-02 3.315E-04 4.129E-02 4.128E-02 
1.200E+01 1.124E-05 1.139E-02 1.564E-04 3.027E-02 3.661E-04 4.219E-02 4.218E-02 
1.300E+01 9.580E-06 1.073E-02 1.426E-04 3.180E-02 3.988E-04 4.308E-02 4.307E-02 
1.400E+01 8.260E-06 1.015E-02 1.310E-04 3.322E-02 4.299E-04 4.394E-02 4.393E-02 
1.500E+01 7.194E-06 9.636E-03 1.211E-04 3.455E-02 4.592E-04 4.478E-02 4.477E-02 
1.600E+01 6.326E-06 9.175E-03 1.126E-04 3.576E-02 4.873E-04 4.554E-02 4.554E-02 
1.800E+01 4.996E-06 8.387E-03 9.864E-05 3.798E-02 5.391E-04 4.701E-02 4.700E-02 
2.000E+01 4.047E-06 7.735E-03 8.778E-05 3.996E-02 5.861E-04 4.837E-02 4.837E-02 
2.200E+01 3.344E-06 7.183E-03 7.905E-05 4.177E-02 6.293E-04 4.967E-02 4.966E-02 
2.400E+01 2.811E-06 6.713E-03 7.188E-05 4.338E-02 6.688E-04 5.084E-02 5.084E-02 
2.600E+01 2.395E-06 6.303E-03 6.590E-05 4.489E-02 7.055E-04 5.197E-02 5.197E-02 
2.800E+01 2.065E-06 5.946E-03 6.083E-05 4.624E-02 7.392E-04 5.299E-02 5.299E-02 
3.000E+01 1.799E-06 5.631E-03 5.650E-05 4.752E-02 7.707E-04 5.398E-02 5.397E-02 
4.000E+01 1.012E-06 4.474E-03 4.163E-05 5.266E-02 9.016E-04 5.808E-02 5.808E-02 
5.000E+01 6.478E-07 3.735E-03 3.293E-05 5.646E-02 1.001E-03 6.123E-02 6.123E-02 
6.000E+01 4.499E-07 3.218E-03 2.725E-05 5.946E-02 1.079E-03 6.378E-02 6.378E-02 
8.000E+01 2.530E-07 2.538E-03 2.025E-05 6.383E-02 1.198E-03 6.759E-02 6.759E-02 
1.000E+02 1.619E-07 2.107E-03 1.611E-05 6.694E-02 1.285E-03 7.034E-02 7.034E-02 
1.500E+02 7.198E-08 1.500E-03 1.066E-05 7.190E-02 1.429E-03 7.484E-02 7.484E-02 
2.000E+02 4.047E-08 1.176E-03 7.966E-06 7.484E-02 1.520E-03 7.755E-02 7.755E-02 
3.000E+02 1.799E-08 8.336E-04 5.290E-06 7.827E-02 1.632E-03 8.074E-02 8.074E-02 
4.000E+02 1.012E-08 6.530E-04 3.962E-06 8.027E-02 1.699E-03 8.262E-02 8.262E-02 
5.000E+02 6.478E-09 5.405E-04 3.165E-06 8.156E-02 1.746E-03 8.385E-02 8.385E-02 
6.000E+02 4.496E-09 4.629E-04 2.635E-06 8.247E-02 1.780E-03 8.472E-02 8.472E-02 
8.000E+02 2.530E-09 3.614E-04 1.975E-06 8.370E-02 1.827E-03 8.589E-02 8.589E-02 
1.000E+03 1.619E-09 2.974E-04 1.579E-06 8.451E-02 1.858E-03 8.667E-02 8.667E-02 
1.500E+03 7.198E-10 2.076E-04 1.052E-06 8.567E-02 1.905E-03 8.778E-02 8.778E-02 
2.000E+03 4.047E-10 1.607E-04 7.886E-07 8.632E-02 1.932E-03 8.841E-02 8.841E-02 
3.000E+03 1.799E-10 1.118E-04 5.255E-07 8.700E-02 1.961E-03 8.907E-02 8.907E-02 
4.000E+03 1.012E-10 8.626E-05 3.940E-07 8.734E-02 1.978E-03 8.940E-02 8.940E-02 
5.000E+03 6.478E-11 7.051E-05 3.152E-07 8.758E-02 1.988E-03 8.963E-02 8.963E-02 
6.000E+03 4.496E-11 5.981E-05 2.626E-07 8.775E-02 1.996E-03 8.980E-02 8.980E-02 
8.000E+03 2.530E-11 4.609E-05 1.970E-07 8.795E-02 2.006E-03 9.000E-02 9.000E-02 
1.000E+04 1.619E-11 3.762E-05 1.576E-07 8.809E-02 2.012E-03 9.014E-02 9.014E-02 
1.500E+04 7.198E-12 2.600E-05 1.050E-07 8.826E-02 2.021E-03 9.030E-02 9.030E-02 
2.000E+04 4.047E-12 1.999E-05 7.877E-08 8.836E-02 2.026E-03 9.040E-02 9.040E-02 
3.000E+04 1.799E-12 1.378E-05 5.252E-08 8.846E-02 2.030E-03 9.051E-02 9.051E-02 
4.000E+04 1.012E-12 1.058E-05 3.940E-08 8.853E-02 2.033E-03 9.057E-02 9.057E-02 
5.000E+04 6.478E-13 8.618E-06 3.151E-08 8.856E-02 2.035E-03 9.061E-02 9.061E-02 
6.000E+04 4.496E-13 7.286E-06 2.626E-08 8.860E-02 2.037E-03 9.064E-02 9.064E-02 
8.000E+04 2.530E-13 5.587E-06 1.969E-08 8.860E-02 2.038E-03 9.064E-02 9.064E-02 
1.000E+05 1.619E-13 4.545E-06 1.575E-08 8.863E-02 2.039E-03 9.067E-02 9.067E-02 