Photon    Coherent Incoher. Photoel. Nuclear  Electron Tot. w/  Tot. wo/ 
Energy    Scatter. Scatter. Absorb.  Pr. Prd. Pr. Prd. Coherent Coherent 

1.000E-03 1.372E+00 1.319E-02 4.076E+03 0.000E+00 0.000E+00 4.077E+03 4.076E+03 
1.500E-03 1.269E+00 2.673E-02 1.374E+03 0.000E+00 0.000E+00 1.376E+03 1.374E+03 
2.000E-03 1.150E+00 4.184E-02 6.162E+02 0.000E+00 0.000E+00 6.173E+02 6.162E+02 
2.500E-03 1.026E+00 5.680E-02 3.257E+02 0.000E+00 0.000E+00 3.268E+02 3.258E+02 
3.000E-03 9.087E-01 7.075E-02 1.919E+02 0.000E+00 0.000E+00 1.928E+02 1.919E+02 
4.000E-03 7.082E-01 9.430E-02 8.197E+01 0.000E+00 0.000E+00 8.277E+01 8.207E+01 
5.000E-03 5.579E-01 1.123E-01 4.192E+01 0.000E+00 0.000E+00 4.259E+01 4.203E+01 
5.500E-03 4.990E-01 1.196E-01 3.139E+01 0.000E+00 0.000E+00 3.201E+01 3.151E+01 
6.000E-03 4.489E-01 1.259E-01 2.407E+01 0.000E+00 0.000E+00 2.464E+01 2.419E+01 
7.000E-03 3.693E-01 1.361E-01 1.499E+01 0.000E+00 0.000E+00 1.550E+01 1.513E+01 
8.000E-03 3.102E-01 1.440E-01 9.919E+00 0.000E+00 0.000E+00 1.037E+01 1.006E+01 
8.500E-03 2.863E-01 1.472E-01 8.216E+00 0.000E+00 0.000E+00 8.649E+00 8.363E+00 
1.000E-02 2.305E-01 1.550E-01 4.944E+00 0.000E+00 0.000E+00 5.330E+00 5.099E+00 
1.150E-02 1.912E-01 1.608E-01 3.184E+00 0.000E+00 0.000E+00 3.536E+00 3.345E+00 
1.300E-02 1.621E-01 1.653E-01 2.160E+00 0.000E+00 0.000E+00 2.487E+00 2.325E+00 
1.450E-02 1.396E-01 1.689E-01 1.526E+00 0.000E+00 0.000E+00 1.834E+00 1.695E+00 
1.500E-02 1.333E-01 1.699E-01 1.369E+00 0.000E+00 0.000E+00 1.672E+00 1.539E+00 
1.600E-02 1.219E-01 1.718E-01 1.114E+00 0.000E+00 0.000E+00 1.408E+00 1.286E+00 
1.750E-02 1.074E-01 1.742E-01 8.359E-01 0.000E+00 0.000E+00 1.118E+00 1.010E+00 
1.900E-02 9.547E-02 1.762E-01 6.417E-01 0.000E+00 0.000E+00 9.134E-01 8.179E-01 
2.000E-02 8.856E-02 1.774E-01 5.439E-01 0.000E+00 0.000E+00 8.098E-01 7.213E-01 
2.050E-02 8.538E-02 1.779E-01 5.022E-01 0.000E+00 0.000E+00 7.655E-01 6.801E-01 
2.200E-02 7.679E-02 1.792E-01 3.997E-01 0.000E+00 0.000E+00 6.557E-01 5.789E-01 
2.350E-02 6.940E-02 1.803E-01 3.228E-01 0.000E+00 0.000E+00 5.725E-01 5.031E-01 
2.500E-02 6.301E-02 1.812E-01 2.640E-01 0.000E+00 0.000E+00 5.082E-01 4.452E-01 
2.650E-02 5.744E-02 1.819E-01 2.184E-01 0.000E+00 0.000E+00 4.577E-01 4.003E-01 
2.800E-02 5.256E-02 1.824E-01 1.826E-01 0.000E+00 0.000E+00 4.175E-01 3.650E-01 
2.950E-02 4.826E-02 1.828E-01 1.540E-01 0.000E+00 0.000E+00 3.850E-01 3.368E-01 
3.000E-02 4.694E-02 1.829E-01 1.458E-01 0.000E+00 0.000E+00 3.756E-01 3.286E-01 
3.100E-02 4.445E-02 1.830E-01 1.309E-01 0.000E+00 0.000E+00 3.584E-01 3.140E-01 
3.250E-02 4.106E-02 1.832E-01 1.122E-01 0.000E+00 0.000E+00 3.365E-01 2.954E-01 
3.400E-02 3.804E-02 1.832E-01 9.679E-02 0.000E+00 0.000E+00 3.181E-01 2.800E-01 
3.550E-02 3.534E-02 1.832E-01 8.403E-02 0.000E+00 0.000E+00 3.026E-01 2.672E-01 
3.700E-02 3.291E-02 1.831E-01 7.336E-02 0.000E+00 0.000E+00 2.894E-01 2.565E-01 
3.850E-02 3.072E-02 1.830E-01 6.439E-02 0.000E+00 0.000E+00 2.781E-01 2.474E-01 
4.000E-02 2.874E-02 1.827E-01 5.680E-02 0.000E+00 0.000E+00 2.683E-01 2.395E-01 
4.150E-02 2.695E-02 1.825E-01 5.032E-02 0.000E+00 0.000E+00 2.598E-01 2.328E-01 
4.300E-02 2.532E-02 1.822E-01 4.478E-02 0.000E+00 0.000E+00 2.523E-01 2.269E-01 
4.450E-02 2.383E-02 1.818E-01 4.000E-02 0.000E+00 0.000E+00 2.457E-01 2.218E-01 
4.600E-02 2.247E-02 1.814E-01 3.587E-02 0.000E+00 0.000E+00 2.398E-01 2.173E-01 
4.750E-02 2.122E-02 1.810E-01 3.227E-02 0.000E+00 0.000E+00 2.345E-01 2.133E-01 
4.900E-02 2.007E-02 1.806E-01 2.913E-02 0.000E+00 0.000E+00 2.298E-01 2.097E-01 
5.000E-02 1.936E-02 1.803E-01 2.725E-02 0.000E+00 0.000E+00 2.269E-01 2.076E-01 
5.050E-02 1.902E-02 1.802E-01 2.637E-02 0.000E+00 0.000E+00 2.256E-01 2.065E-01 
5.200E-02 1.804E-02 1.797E-01 2.394E-02 0.000E+00 0.000E+00 2.217E-01 2.037E-01 
5.350E-02 1.714E-02 1.792E-01 2.180E-02 0.000E+00 0.000E+00 2.182E-01 2.010E-01 
5.500E-02 1.631E-02 1.787E-01 1.990E-02 0.000E+00 0.000E+00 2.149E-01 1.986E-01 
5.650E-02 1.553E-02 1.782E-01 1.820E-02 0.000E+00 0.000E+00 2.120E-01 1.964E-01 
5.800E-02 1.481E-02 1.777E-01 1.669E-02 0.000E+00 0.000E+00 2.092E-01 1.944E-01 
5.950E-02 1.413E-02 1.772E-01 1.534E-02 0.000E+00 0.000E+00 2.067E-01 1.925E-01 
6.000E-02 1.392E-02 1.770E-01 1.493E-02 0.000E+00 0.000E+00 2.059E-01 1.920E-01 
6.100E-02 1.350E-02 1.767E-01 1.413E-02 0.000E+00 0.000E+00 2.043E-01 1.908E-01 
6.250E-02 1.292E-02 1.761E-01 1.304E-02 0.000E+00 0.000E+00 2.021E-01 1.892E-01 
6.400E-02 1.236E-02 1.756E-01 1.206E-02 0.000E+00 0.000E+00 2.000E-01 1.877E-01 
6.550E-02 1.185E-02 1.751E-01 1.117E-02 0.000E+00 0.000E+00 1.981E-01 1.862E-01 
6.700E-02 1.136E-02 1.745E-01 1.037E-02 0.000E+00 0.000E+00 1.962E-01 1.849E-01 
6.850E-02 1.091E-02 1.740E-01 9.635E-03 0.000E+00 0.000E+00 1.945E-01 1.836E-01 
7.000E-02 1.048E-02 1.734E-01 8.969E-03 0.000E+00 0.000E+00 1.929E-01 1.824E-01 
7.150E-02 1.007E-02 1.729E-01 8.363E-03 0.000E+00 0.000E+00 1.913E-01 1.812E-01 
7.300E-02 9.690E-03 1.723E-01 7.808E-03 0.000E+00 0.000E+00 1.898E-01 1.801E-01 
7.450E-02 9.330E-03 1.717E-01 7.301E-03 0.000E+00 0.000E+00 1.884E-01 1.790E-01 
7.600E-02 8.988E-03 1.712E-01 6.835E-03 0.000E+00 0.000E+00 1.870E-01 1.780E-01 
7.750E-02 8.666E-03 1.706E-01 6.408E-03 0.000E+00 0.000E+00 1.857E-01 1.770E-01 
7.900E-02 8.360E-03 1.701E-01 6.015E-03 0.000E+00 0.000E+00 1.845E-01 1.761E-01 
8.000E-02 8.165E-03 1.697E-01 5.770E-03 0.000E+00 0.000E+00 1.837E-01 1.755E-01 
8.050E-02 8.069E-03 1.695E-01 5.652E-03 0.000E+00 0.000E+00 1.833E-01 1.752E-01 
8.200E-02 7.794E-03 1.690E-01 5.318E-03 0.000E+00 0.000E+00 1.821E-01 1.743E-01 
8.350E-02 7.532E-03 1.684E-01 5.009E-03 0.000E+00 0.000E+00 1.810E-01 1.735E-01 
8.500E-02 7.284E-03 1.679E-01 4.723E-03 0.000E+00 0.000E+00 1.799E-01 1.726E-01 
8.650E-02 7.047E-03 1.674E-01 4.458E-03 0.000E+00 0.000E+00 1.789E-01 1.718E-01 
8.800E-02 6.821E-03 1.668E-01 4.212E-03 0.000E+00 0.000E+00 1.779E-01 1.710E-01 
8.950E-02 6.607E-03 1.663E-01 3.983E-03 0.000E+00 0.000E+00 1.769E-01 1.703E-01 
9.100E-02 6.402E-03 1.658E-01 3.771E-03 0.000E+00 0.000E+00 1.759E-01 1.695E-01 
9.250E-02 6.206E-03 1.652E-01 3.573E-03 0.000E+00 0.000E+00 1.750E-01 1.688E-01 
9.400E-02 6.019E-03 1.647E-01 3.388E-03 0.000E+00 0.000E+00 1.741E-01 1.681E-01 
9.550E-02 5.840E-03 1.642E-01 3.216E-03 0.000E+00 0.000E+00 1.732E-01 1.674E-01 
9.700E-02 5.669E-03 1.636E-01 3.054E-03 0.000E+00 0.000E+00 1.724E-01 1.667E-01 
9.850E-02 5.506E-03 1.631E-01 2.904E-03 0.000E+00 0.000E+00 1.715E-01 1.660E-01 
1.000E-01 5.349E-03 1.626E-01 2.763E-03 0.000E+00 0.000E+00 1.707E-01 1.654E-01 
1.015E-01 5.199E-03 1.621E-01 2.630E-03 0.000E+00 0.000E+00 1.699E-01 1.647E-01 
1.030E-01 5.055E-03 1.616E-01 2.506E-03 0.000E+00 0.000E+00 1.692E-01 1.641E-01 
1.045E-01 4.917E-03 1.611E-01 2.390E-03 0.000E+00 0.000E+00 1.684E-01 1.635E-01 
1.060E-01 4.785E-03 1.606E-01 2.280E-03 0.000E+00 0.000E+00 1.677E-01 1.629E-01 
1.075E-01 4.657E-03 1.601E-01 2.177E-03 0.000E+00 0.000E+00 1.669E-01 1.623E-01 
1.090E-01 4.535E-03 1.596E-01 2.080E-03 0.000E+00 0.000E+00 1.662E-01 1.617E-01 
1.105E-01 4.417E-03 1.591E-01 1.988E-03 0.000E+00 0.000E+00 1.655E-01 1.611E-01 
1.120E-01 4.304E-03 1.586E-01 1.902E-03 0.000E+00 0.000E+00 1.648E-01 1.605E-01 
1.135E-01 4.196E-03 1.581E-01 1.821E-03 0.000E+00 0.000E+00 1.641E-01 1.599E-01 
1.150E-01 4.091E-03 1.576E-01 1.744E-03 0.000E+00 0.000E+00 1.635E-01 1.594E-01 
1.165E-01 3.990E-03 1.572E-01 1.671E-03 0.000E+00 0.000E+00 1.628E-01 1.588E-01 
1.180E-01 3.892E-03 1.567E-01 1.602E-03 0.000E+00 0.000E+00 1.622E-01 1.583E-01 
1.195E-01 3.799E-03 1.562E-01 1.537E-03 0.000E+00 0.000E+00 1.616E-01 1.578E-01 
1.210E-01 3.708E-03 1.558E-01 1.475E-03 0.000E+00 0.000E+00 1.609E-01 1.572E-01 
1.225E-01 3.621E-03 1.553E-01 1.417E-03 0.000E+00 0.000E+00 1.603E-01 1.567E-01 
1.240E-01 3.537E-03 1.548E-01 1.362E-03 0.000E+00 0.000E+00 1.597E-01 1.562E-01 
1.255E-01 3.455E-03 1.544E-01 1.309E-03 0.000E+00 0.000E+00 1.591E-01 1.557E-01 
1.270E-01 3.376E-03 1.539E-01 1.259E-03 0.000E+00 0.000E+00 1.586E-01 1.552E-01 
1.285E-01 3.300E-03 1.535E-01 1.211E-03 0.000E+00 0.000E+00 1.580E-01 1.547E-01 
1.300E-01 3.227E-03 1.530E-01 1.166E-03 0.000E+00 0.000E+00 1.574E-01 1.542E-01 
1.315E-01 3.156E-03 1.526E-01 1.123E-03 0.000E+00 0.000E+00 1.569E-01 1.537E-01 
1.330E-01 3.087E-03 1.521E-01 1.082E-03 0.000E+00 0.000E+00 1.563E-01 1.532E-01 
1.345E-01 3.021E-03 1.517E-01 1.043E-03 0.000E+00 0.000E+00 1.558E-01 1.527E-01 
1.360E-01 2.956E-03 1.513E-01 1.006E-03 0.000E+00 0.000E+00 1.552E-01 1.523E-01 
1.375E-01 2.894E-03 1.508E-01 9.707E-04 0.000E+00 0.000E+00 1.547E-01 1.518E-01 
1.390E-01 2.833E-03 1.504E-01 9.369E-04 0.000E+00 0.000E+00 1.542E-01 1.513E-01 
1.405E-01 2.775E-03 1.500E-01 9.046E-04 0.000E+00 0.000E+00 1.537E-01 1.509E-01 
1.420E-01 2.718E-03 1.496E-01 8.737E-04 0.000E+00 0.000E+00 1.531E-01 1.504E-01 
1.435E-01 2.663E-03 1.491E-01 8.443E-04 0.000E+00 0.000E+00 1.526E-01 1.500E-01 
1.450E-01 2.609E-03 1.487E-01 8.161E-04 0.000E+00 0.000E+00 1.521E-01 1.495E-01 
1.465E-01 2.557E-03 1.483E-01 7.892E-04 0.000E+00 0.000E+00 1.516E-01 1.491E-01 
1.480E-01 2.507E-03 1.479E-01 7.634E-04 0.000E+00 0.000E+00 1.512E-01 1.487E-01 
1.495E-01 2.458E-03 1.475E-01 7.388E-04 0.000E+00 0.000E+00 1.507E-01 1.482E-01 
1.500E-01 2.442E-03 1.474E-01 7.308E-04 0.000E+00 0.000E+00 1.505E-01 1.481E-01 
2.000E-01 1.388E-03 1.353E-01 2.887E-04 0.000E+00 0.000E+00 1.370E-01 1.356E-01 
3.000E-01 6.215E-04 1.179E-01 8.160E-05 0.000E+00 0.000E+00 1.186E-01 1.180E-01 
4.000E-01 3.506E-04 1.058E-01 3.493E-05 0.000E+00 0.000E+00 1.061E-01 1.058E-01 
5.000E-01 2.247E-04 9.663E-02 1.883E-05 0.000E+00 0.000E+00 9.687E-02 9.665E-02 
6.000E-01 1.561E-04 8.939E-02 1.173E-05 0.000E+00 0.000E+00 8.956E-02 8.940E-02 
8.000E-01 8.790E-05 7.856E-02 5.920E-06 0.000E+00 0.000E+00 7.866E-02 7.857E-02 
1.000E+00 5.627E-05 7.066E-02 3.681E-06 0.000E+00 0.000E+00 7.072E-02 7.066E-02 
1.022E+00 5.388E-05 6.991E-02 3.430E-06 0.000E+00 0.000E+00 6.997E-02 6.991E-02 
1.250E+00 3.603E-05 6.318E-02 2.329E-06 1.777E-05 0.000E+00 6.323E-02 6.320E-02 
1.500E+00 2.501E-05 5.742E-02 1.690E-06 9.820E-05 0.000E+00 5.754E-02 5.752E-02 
2.000E+00 1.407E-05 4.901E-02 1.063E-06 3.908E-04 0.000E+00 4.942E-02 4.940E-02 
2.044E+00 1.347E-05 4.839E-02 1.028E-06 4.212E-04 0.000E+00 4.883E-02 4.881E-02 
3.000E+00 6.255E-06 3.855E-02 5.937E-07 1.117E-03 1.349E-05 3.969E-02 3.968E-02 
4.000E+00 3.519E-06 3.216E-02 4.075E-07 1.812E-03 5.507E-05 3.403E-02 3.402E-02 
5.000E+00 2.252E-06 2.777E-02 3.090E-07 2.431E-03 1.097E-04 3.031E-02 3.031E-02 
6.000E+00 1.564E-06 2.454E-02 2.484E-07 2.987E-03 1.685E-04 2.770E-02 2.770E-02 
7.000E+00 1.149E-06 2.206E-02 2.075E-07 3.482E-03 2.272E-04 2.577E-02 2.577E-02 
8.000E+00 8.796E-07 2.008E-02 1.780E-07 3.927E-03 2.843E-04 2.429E-02 2.429E-02 
9.000E+00 6.951E-07 1.846E-02 1.559E-07 4.334E-03 3.389E-04 2.313E-02 2.313E-02 
1.000E+01 5.630E-07 1.710E-02 1.386E-07 4.699E-03 3.910E-04 2.219E-02 2.219E-02 
1.100E+01 4.652E-07 1.595E-02 1.248E-07 5.034E-03 4.404E-04 2.142E-02 2.142E-02 
1.200E+01 3.909E-07 1.496E-02 1.134E-07 5.341E-03 4.872E-04 2.079E-02 2.079E-02 
1.300E+01 3.331E-07 1.409E-02 1.039E-07 5.627E-03 5.315E-04 2.025E-02 2.025E-02 
1.400E+01 2.872E-07 1.333E-02 9.591E-08 5.893E-03 5.737E-04 1.980E-02 1.980E-02 
1.500E+01 2.502E-07 1.266E-02 8.906E-08 6.141E-03 6.135E-04 1.941E-02 1.941E-02 
1.600E+01 2.199E-07 1.205E-02 8.311E-08 6.376E-03 6.519E-04 1.908E-02 1.908E-02 
1.800E+01 1.737E-07 1.102E-02 7.331E-08 6.803E-03 7.230E-04 1.854E-02 1.854E-02 
2.000E+01 1.407E-07 1.016E-02 6.555E-08 7.186E-03 7.878E-04 1.813E-02 1.813E-02 
2.200E+01 1.163E-07 9.435E-03 5.930E-08 7.535E-03 8.480E-04 1.782E-02 1.782E-02 
2.400E+01 9.775E-08 8.817E-03 5.412E-08 7.853E-03 9.033E-04 1.757E-02 1.757E-02 
2.600E+01 8.329E-08 8.278E-03 4.978E-08 8.143E-03 9.548E-04 1.738E-02 1.738E-02 
2.800E+01 7.180E-08 7.809E-03 4.607E-08 8.412E-03 1.003E-03 1.722E-02 1.722E-02 
3.000E+01 6.255E-08 7.396E-03 4.289E-08 8.661E-03 1.048E-03 1.710E-02 1.710E-02 
4.000E+01 3.519E-08 5.875E-03 3.186E-08 9.674E-03 1.237E-03 1.679E-02 1.679E-02 
5.000E+01 2.252E-08 4.906E-03 2.534E-08 1.045E-02 1.385E-03 1.674E-02 1.674E-02 
6.000E+01 1.564E-08 4.225E-03 2.104E-08 1.106E-02 1.505E-03 1.679E-02 1.679E-02 
8.000E+01 8.796E-09 3.333E-03 1.571E-08 1.199E-02 1.693E-03 1.702E-02 1.702E-02 
1.000E+02 5.630E-09 2.767E-03 1.253E-08 1.267E-02 1.834E-03 1.727E-02 1.727E-02 
1.500E+02 2.502E-09 1.970E-03 8.317E-09 1.380E-02 2.081E-03 1.785E-02 1.785E-02 
2.000E+02 1.407E-09 1.545E-03 6.228E-09 1.450E-02 2.243E-03 1.829E-02 1.829E-02 
3.000E+02 6.255E-10 1.095E-03 4.142E-09 1.534E-02 2.453E-03 1.888E-02 1.888E-02 
4.000E+02 3.519E-10 8.574E-04 3.105E-09 1.583E-02 2.584E-03 1.927E-02 1.927E-02 
5.000E+02 2.251E-10 7.099E-04 2.482E-09 1.615E-02 2.675E-03 1.954E-02 1.954E-02 
6.000E+02 1.564E-10 6.079E-04 2.068E-09 1.639E-02 2.742E-03 1.974E-02 1.974E-02 
8.000E+02 8.796E-11 4.747E-04 1.550E-09 1.670E-02 2.838E-03 2.002E-02 2.002E-02 
1.000E+03 5.630E-11 3.905E-04 1.240E-09 1.691E-02 2.902E-03 2.020E-02 2.020E-02 
1.500E+03 2.502E-11 2.727E-04 8.260E-10 1.721E-02 2.999E-03 2.048E-02 2.048E-02 
2.000E+03 1.407E-11 2.111E-04 6.194E-10 1.738E-02 3.054E-03 2.064E-02 2.064E-02 
3.000E+03 6.255E-12 1.467E-04 4.129E-10 1.755E-02 3.114E-03 2.082E-02 2.082E-02 
4.000E+03 3.519E-12 1.133E-04 3.096E-10 1.765E-02 3.150E-03 2.091E-02 2.091E-02 
5.000E+03 2.251E-12 9.264E-05 2.477E-10 1.771E-02 3.172E-03 2.097E-02 2.097E-02 
6.000E+03 1.564E-12 7.856E-05 2.064E-10 1.776E-02 3.188E-03 2.102E-02 2.102E-02 
8.000E+03 8.796E-13 6.050E-05 1.548E-10 1.781E-02 3.208E-03 2.108E-02 2.108E-02 
1.000E+04 5.630E-13 4.939E-05 1.238E-10 1.784E-02 3.222E-03 2.111E-02 2.111E-02 
1.500E+04 2.502E-13 3.414E-05 8.254E-11 1.789E-02 3.240E-03 2.117E-02 2.117E-02 
2.000E+04 1.407E-13 2.625E-05 6.191E-11 1.792E-02 3.250E-03 2.120E-02 2.120E-02 
3.000E+04 6.255E-14 1.811E-05 4.129E-11 1.795E-02 3.260E-03 2.123E-02 2.123E-02 
4.000E+04 3.519E-14 1.390E-05 3.096E-11 1.796E-02 3.267E-03 2.124E-02 2.124E-02 
5.000E+04 2.251E-14 1.132E-05 2.476E-11 1.797E-02 3.270E-03 2.125E-02 2.125E-02 
6.000E+04 1.564E-14 9.568E-06 2.064E-11 1.798E-02 3.273E-03 2.126E-02 2.126E-02 
8.000E+04 8.796E-15 7.337E-06 1.548E-11 1.798E-02 3.275E-03 2.127E-02 2.127E-02 
1.000E+05 5.630E-15 5.967E-06 1.238E-11 1.799E-02 3.278E-03 2.127E-02 2.127E-02 