Photon    Coherent Incoher. Photoel. Nuclear  Electron Tot. w/  Tot. wo/ 
Energy    Scatter. Scatter. Absorb.  Pr. Prd. Pr. Prd. Coherent Coherent 

1.000E-03 1.372E+00 1.319E-02 4.076E+03 0.000E+00 0.000E+00 4.077E+03 4.076E+03 
1.500E-03 1.269E+00 2.673E-02 1.374E+03 0.000E+00 0.000E+00 1.376E+03 1.374E+03 
2.000E-03 1.150E+00 4.184E-02 6.162E+02 0.000E+00 0.000E+00 6.173E+02 6.162E+02 
3.000E-03 9.087E-01 7.075E-02 1.919E+02 0.000E+00 0.000E+00 1.928E+02 1.919E+02 
4.000E-03 7.082E-01 9.430E-02 8.197E+01 0.000E+00 0.000E+00 8.277E+01 8.207E+01 
5.000E-03 5.579E-01 1.123E-01 4.192E+01 0.000E+00 0.000E+00 4.259E+01 4.203E+01 
6.000E-03 4.489E-01 1.259E-01 2.407E+01 0.000E+00 0.000E+00 2.464E+01 2.419E+01 
7.000E-03 3.693E-01 1.361E-01 1.499E+01 0.000E+00 0.000E+00 1.550E+01 1.513E+01 
8.000E-03 3.102E-01 1.440E-01 9.919E+00 0.000E+00 0.000E+00 1.037E+01 1.006E+01 
9.000E-03 2.653E-01 1.501E-01 6.875E+00 0.000E+00 0.000E+00 7.291E+00 7.025E+00 
1.000E-02 2.305E-01 1.550E-01 4.944E+00 0.000E+00 0.000E+00 5.330E+00 5.099E+00 
1.100E-02 2.029E-01 1.591E-01 3.664E+00 0.000E+00 0.000E+00 4.026E+00 3.823E+00 
1.300E-02 1.621E-01 1.653E-01 2.160E+00 0.000E+00 0.000E+00 2.487E+00 2.325E+00 
1.500E-02 1.333E-01 1.699E-01 1.369E+00 0.000E+00 0.000E+00 1.672E+00 1.539E+00 
1.700E-02 1.119E-01 1.735E-01 9.174E-01 0.000E+00 0.000E+00 1.203E+00 1.091E+00 
1.900E-02 9.547E-02 1.762E-01 6.417E-01 0.000E+00 0.000E+00 9.134E-01 8.179E-01 
2.000E-02 8.856E-02 1.774E-01 5.439E-01 0.000E+00 0.000E+00 8.098E-01 7.213E-01 
2.100E-02 8.237E-02 1.783E-01 4.646E-01 0.000E+00 0.000E+00 7.253E-01 6.430E-01 
2.300E-02 7.174E-02 1.800E-01 3.461E-01 0.000E+00 0.000E+00 5.978E-01 5.261E-01 
2.500E-02 6.301E-02 1.812E-01 2.640E-01 0.000E+00 0.000E+00 5.082E-01 4.452E-01 
2.700E-02 5.574E-02 1.821E-01 2.055E-01 0.000E+00 0.000E+00 4.433E-01 3.876E-01 
2.900E-02 4.963E-02 1.827E-01 1.628E-01 0.000E+00 0.000E+00 3.951E-01 3.455E-01 
3.000E-02 4.694E-02 1.829E-01 1.458E-01 0.000E+00 0.000E+00 3.756E-01 3.286E-01 
3.100E-02 4.445E-02 1.830E-01 1.309E-01 0.000E+00 0.000E+00 3.584E-01 3.140E-01 
3.300E-02 4.002E-02 1.832E-01 1.067E-01 0.000E+00 0.000E+00 3.300E-01 2.899E-01 
3.500E-02 3.621E-02 1.832E-01 8.802E-02 0.000E+00 0.000E+00 3.075E-01 2.713E-01 
3.700E-02 3.291E-02 1.831E-01 7.336E-02 0.000E+00 0.000E+00 2.894E-01 2.565E-01 
3.900E-02 3.004E-02 1.829E-01 6.172E-02 0.000E+00 0.000E+00 2.747E-01 2.446E-01 
4.000E-02 2.874E-02 1.827E-01 5.680E-02 0.000E+00 0.000E+00 2.683E-01 2.395E-01 
4.100E-02 2.753E-02 1.826E-01 5.237E-02 0.000E+00 0.000E+00 2.625E-01 2.349E-01 
4.300E-02 2.532E-02 1.822E-01 4.478E-02 0.000E+00 0.000E+00 2.523E-01 2.269E-01 
4.500E-02 2.336E-02 1.817E-01 3.856E-02 0.000E+00 0.000E+00 2.436E-01 2.203E-01 
4.700E-02 2.162E-02 1.812E-01 3.341E-02 0.000E+00 0.000E+00 2.362E-01 2.146E-01 
4.900E-02 2.007E-02 1.806E-01 2.913E-02 0.000E+00 0.000E+00 2.298E-01 2.097E-01 
5.000E-02 1.936E-02 1.803E-01 2.725E-02 0.000E+00 0.000E+00 2.269E-01 2.076E-01 
5.100E-02 1.868E-02 1.800E-01 2.553E-02 0.000E+00 0.000E+00 2.242E-01 2.055E-01 
5.300E-02 1.743E-02 1.794E-01 2.248E-02 0.000E+00 0.000E+00 2.193E-01 2.019E-01 
5.500E-02 1.631E-02 1.787E-01 1.990E-02 0.000E+00 0.000E+00 2.149E-01 1.986E-01 
5.700E-02 1.528E-02 1.781E-01 1.768E-02 0.000E+00 0.000E+00 2.110E-01 1.957E-01 
5.900E-02 1.435E-02 1.774E-01 1.578E-02 0.000E+00 0.000E+00 2.075E-01 1.932E-01 
6.000E-02 1.392E-02 1.770E-01 1.493E-02 0.000E+00 0.000E+00 2.059E-01 1.920E-01 
6.100E-02 1.350E-02 1.767E-01 1.413E-02 0.000E+00 0.000E+00 2.043E-01 1.908E-01 
6.300E-02 1.273E-02 1.760E-01 1.270E-02 0.000E+00 0.000E+00 2.014E-01 1.887E-01 
6.500E-02 1.202E-02 1.752E-01 1.146E-02 0.000E+00 0.000E+00 1.987E-01 1.867E-01 
6.700E-02 1.136E-02 1.745E-01 1.037E-02 0.000E+00 0.000E+00 1.962E-01 1.849E-01 
6.900E-02 1.076E-02 1.738E-01 9.406E-03 0.000E+00 0.000E+00 1.939E-01 1.832E-01 
7.100E-02 1.020E-02 1.730E-01 8.559E-03 0.000E+00 0.000E+00 1.918E-01 1.816E-01 
7.300E-02 9.690E-03 1.723E-01 7.808E-03 0.000E+00 0.000E+00 1.898E-01 1.801E-01 
7.500E-02 9.214E-03 1.716E-01 7.141E-03 0.000E+00 0.000E+00 1.879E-01 1.787E-01 
7.700E-02 8.771E-03 1.708E-01 6.546E-03 0.000E+00 0.000E+00 1.861E-01 1.774E-01 
7.900E-02 8.360E-03 1.701E-01 6.015E-03 0.000E+00 0.000E+00 1.845E-01 1.761E-01 
8.000E-02 8.165E-03 1.697E-01 5.770E-03 0.000E+00 0.000E+00 1.837E-01 1.755E-01 
8.100E-02 7.976E-03 1.694E-01 5.538E-03 0.000E+00 0.000E+00 1.829E-01 1.749E-01 
8.300E-02 7.618E-03 1.686E-01 5.109E-03 0.000E+00 0.000E+00 1.814E-01 1.737E-01 
8.500E-02 7.284E-03 1.679E-01 4.723E-03 0.000E+00 0.000E+00 1.799E-01 1.726E-01 
8.700E-02 6.971E-03 1.672E-01 4.374E-03 0.000E+00 0.000E+00 1.785E-01 1.716E-01 
8.900E-02 6.677E-03 1.665E-01 4.058E-03 0.000E+00 0.000E+00 1.772E-01 1.705E-01 
9.100E-02 6.402E-03 1.658E-01 3.771E-03 0.000E+00 0.000E+00 1.759E-01 1.695E-01 
9.300E-02 6.143E-03 1.650E-01 3.510E-03 0.000E+00 0.000E+00 1.747E-01 1.686E-01 
9.500E-02 5.899E-03 1.643E-01 3.272E-03 0.000E+00 0.000E+00 1.735E-01 1.676E-01 
9.700E-02 5.669E-03 1.636E-01 3.054E-03 0.000E+00 0.000E+00 1.724E-01 1.667E-01 
9.900E-02 5.453E-03 1.630E-01 2.856E-03 0.000E+00 0.000E+00 1.713E-01 1.658E-01 
1.000E-01 5.349E-03 1.626E-01 2.763E-03 0.000E+00 0.000E+00 1.707E-01 1.654E-01 
1.010E-01 5.249E-03 1.623E-01 2.673E-03 0.000E+00 0.000E+00 1.702E-01 1.649E-01 
1.030E-01 5.055E-03 1.616E-01 2.506E-03 0.000E+00 0.000E+00 1.692E-01 1.641E-01 
1.050E-01 4.872E-03 1.609E-01 2.352E-03 0.000E+00 0.000E+00 1.681E-01 1.633E-01 
1.070E-01 4.699E-03 1.603E-01 2.211E-03 0.000E+00 0.000E+00 1.672E-01 1.625E-01 
1.090E-01 4.535E-03 1.596E-01 2.080E-03 0.000E+00 0.000E+00 1.662E-01 1.617E-01 
1.110E-01 4.379E-03 1.589E-01 1.959E-03 0.000E+00 0.000E+00 1.653E-01 1.609E-01 
1.130E-01 4.231E-03 1.583E-01 1.847E-03 0.000E+00 0.000E+00 1.644E-01 1.601E-01 
1.150E-01 4.091E-03 1.576E-01 1.744E-03 0.000E+00 0.000E+00 1.635E-01 1.594E-01 
1.170E-01 3.957E-03 1.570E-01 1.648E-03 0.000E+00 0.000E+00 1.626E-01 1.587E-01 
1.190E-01 3.830E-03 1.564E-01 1.558E-03 0.000E+00 0.000E+00 1.618E-01 1.579E-01 
1.210E-01 3.708E-03 1.558E-01 1.475E-03 0.000E+00 0.000E+00 1.609E-01 1.572E-01 
1.230E-01 3.592E-03 1.551E-01 1.398E-03 0.000E+00 0.000E+00 1.601E-01 1.565E-01 
1.250E-01 3.482E-03 1.545E-01 1.326E-03 0.000E+00 0.000E+00 1.593E-01 1.559E-01 
1.270E-01 3.376E-03 1.539E-01 1.259E-03 0.000E+00 0.000E+00 1.586E-01 1.552E-01 
1.290E-01 3.276E-03 1.533E-01 1.196E-03 0.000E+00 0.000E+00 1.578E-01 1.545E-01 
1.310E-01 3.179E-03 1.527E-01 1.137E-03 0.000E+00 0.000E+00 1.570E-01 1.539E-01 
1.330E-01 3.087E-03 1.521E-01 1.082E-03 0.000E+00 0.000E+00 1.563E-01 1.532E-01 
1.350E-01 2.999E-03 1.516E-01 1.031E-03 0.000E+00 0.000E+00 1.556E-01 1.526E-01 
1.370E-01 2.914E-03 1.510E-01 9.823E-04 0.000E+00 0.000E+00 1.549E-01 1.520E-01 
1.390E-01 2.833E-03 1.504E-01 9.369E-04 0.000E+00 0.000E+00 1.542E-01 1.513E-01 
1.410E-01 2.755E-03 1.498E-01 8.941E-04 0.000E+00 0.000E+00 1.535E-01 1.507E-01 
1.430E-01 2.681E-03 1.493E-01 8.540E-04 0.000E+00 0.000E+00 1.528E-01 1.501E-01 
1.450E-01 2.609E-03 1.487E-01 8.161E-04 0.000E+00 0.000E+00 1.521E-01 1.495E-01 
1.470E-01 2.540E-03 1.482E-01 7.805E-04 0.000E+00 0.000E+00 1.515E-01 1.489E-01 
1.490E-01 2.474E-03 1.476E-01 7.469E-04 0.000E+00 0.000E+00 1.508E-01 1.484E-01 
1.500E-01 2.442E-03 1.474E-01 7.308E-04 0.000E+00 0.000E+00 1.505E-01 1.481E-01 
1.510E-01 2.410E-03 1.471E-01 7.151E-04 0.000E+00 0.000E+00 1.502E-01 1.478E-01 
1.530E-01 2.349E-03 1.465E-01 6.851E-04 0.000E+00 0.000E+00 1.496E-01 1.472E-01 
1.550E-01 2.290E-03 1.460E-01 6.568E-04 0.000E+00 0.000E+00 1.490E-01 1.467E-01 
1.570E-01 2.234E-03 1.455E-01 6.300E-04 0.000E+00 0.000E+00 1.484E-01 1.461E-01 
1.590E-01 2.179E-03 1.450E-01 6.046E-04 0.000E+00 0.000E+00 1.478E-01 1.456E-01 
1.610E-01 2.126E-03 1.445E-01 5.806E-04 0.000E+00 0.000E+00 1.472E-01 1.450E-01 
1.630E-01 2.075E-03 1.439E-01 5.578E-04 0.000E+00 0.000E+00 1.466E-01 1.445E-01 
1.650E-01 2.026E-03 1.434E-01 5.362E-04 0.000E+00 0.000E+00 1.460E-01 1.440E-01 
1.670E-01 1.979E-03 1.429E-01 5.156E-04 0.000E+00 0.000E+00 1.454E-01 1.435E-01 
1.690E-01 1.933E-03 1.424E-01 4.962E-04 0.000E+00 0.000E+00 1.449E-01 1.429E-01 
1.710E-01 1.889E-03 1.420E-01 4.776E-04 0.000E+00 0.000E+00 1.443E-01 1.424E-01 
1.730E-01 1.846E-03 1.415E-01 4.600E-04 0.000E+00 0.000E+00 1.438E-01 1.419E-01 
1.750E-01 1.805E-03 1.410E-01 4.433E-04 0.000E+00 0.000E+00 1.432E-01 1.414E-01 
1.770E-01 1.765E-03 1.405E-01 4.273E-04 0.000E+00 0.000E+00 1.427E-01 1.409E-01 
1.790E-01 1.727E-03 1.400E-01 4.121E-04 0.000E+00 0.000E+00 1.422E-01 1.405E-01 
1.810E-01 1.689E-03 1.396E-01 3.976E-04 0.000E+00 0.000E+00 1.417E-01 1.400E-01 
1.830E-01 1.653E-03 1.391E-01 3.838E-04 0.000E+00 0.000E+00 1.411E-01 1.395E-01 
1.850E-01 1.618E-03 1.387E-01 3.706E-04 0.000E+00 0.000E+00 1.406E-01 1.390E-01 
1.870E-01 1.584E-03 1.382E-01 3.580E-04 0.000E+00 0.000E+00 1.401E-01 1.386E-01 
1.890E-01 1.551E-03 1.377E-01 3.460E-04 0.000E+00 0.000E+00 1.396E-01 1.381E-01 
1.910E-01 1.520E-03 1.373E-01 3.345E-04 0.000E+00 0.000E+00 1.392E-01 1.376E-01 
1.930E-01 1.489E-03 1.369E-01 3.236E-04 0.000E+00 0.000E+00 1.387E-01 1.372E-01 
1.950E-01 1.459E-03 1.364E-01 3.131E-04 0.000E+00 0.000E+00 1.382E-01 1.367E-01 
1.970E-01 1.430E-03 1.360E-01 3.030E-04 0.000E+00 0.000E+00 1.377E-01 1.363E-01 
1.990E-01 1.401E-03 1.356E-01 2.934E-04 0.000E+00 0.000E+00 1.373E-01 1.358E-01 
2.000E-01 1.388E-03 1.353E-01 2.887E-04 0.000E+00 0.000E+00 1.370E-01 1.356E-01 
3.000E-01 6.215E-04 1.179E-01 8.160E-05 0.000E+00 0.000E+00 1.186E-01 1.180E-01 
4.000E-01 3.506E-04 1.058E-01 3.493E-05 0.000E+00 0.000E+00 1.061E-01 1.058E-01 
5.000E-01 2.247E-04 9.663E-02 1.883E-05 0.000E+00 0.000E+00 9.687E-02 9.665E-02 
6.000E-01 1.561E-04 8.939E-02 1.173E-05 0.000E+00 0.000E+00 8.956E-02 8.940E-02 
8.000E-01 8.790E-05 7.856E-02 5.920E-06 0.000E+00 0.000E+00 7.866E-02 7.857E-02 
1.000E+00 5.627E-05 7.066E-02 3.681E-06 0.000E+00 0.000E+00 7.072E-02 7.066E-02 
1.022E+00 5.388E-05 6.991E-02 3.430E-06 0.000E+00 0.000E+00 6.997E-02 6.991E-02 
1.250E+00 3.603E-05 6.318E-02 2.329E-06 1.777E-05 0.000E+00 6.323E-02 6.320E-02 
1.500E+00 2.501E-05 5.742E-02 1.690E-06 9.820E-05 0.000E+00 5.754E-02 5.752E-02 
2.000E+00 1.407E-05 4.901E-02 1.063E-06 3.908E-04 0.000E+00 4.942E-02 4.940E-02 
2.044E+00 1.347E-05 4.839E-02 1.028E-06 4.212E-04 0.000E+00 4.883E-02 4.881E-02 
3.000E+00 6.255E-06 3.855E-02 5.937E-07 1.117E-03 1.349E-05 3.969E-02 3.968E-02 
4.000E+00 3.519E-06 3.216E-02 4.075E-07 1.812E-03 5.507E-05 3.403E-02 3.402E-02 
5.000E+00 2.252E-06 2.777E-02 3.090E-07 2.431E-03 1.097E-04 3.031E-02 3.031E-02 
6.000E+00 1.564E-06 2.454E-02 2.484E-07 2.987E-03 1.685E-04 2.770E-02 2.770E-02 
7.000E+00 1.149E-06 2.206E-02 2.075E-07 3.482E-03 2.272E-04 2.577E-02 2.577E-02 
8.000E+00 8.796E-07 2.008E-02 1.780E-07 3.927E-03 2.843E-04 2.429E-02 2.429E-02 
9.000E+00 6.951E-07 1.846E-02 1.559E-07 4.334E-03 3.389E-04 2.313E-02 2.313E-02 
1.000E+01 5.630E-07 1.710E-02 1.386E-07 4.699E-03 3.910E-04 2.219E-02 2.219E-02 
1.100E+01 4.652E-07 1.595E-02 1.248E-07 5.034E-03 4.404E-04 2.142E-02 2.142E-02 
1.200E+01 3.909E-07 1.496E-02 1.134E-07 5.341E-03 4.872E-04 2.079E-02 2.079E-02 
1.300E+01 3.331E-07 1.409E-02 1.039E-07 5.627E-03 5.315E-04 2.025E-02 2.025E-02 
1.400E+01 2.872E-07 1.333E-02 9.591E-08 5.893E-03 5.737E-04 1.980E-02 1.980E-02 
1.500E+01 2.502E-07 1.266E-02 8.906E-08 6.141E-03 6.135E-04 1.941E-02 1.941E-02 
1.600E+01 2.199E-07 1.205E-02 8.311E-08 6.376E-03 6.519E-04 1.908E-02 1.908E-02 
1.800E+01 1.737E-07 1.102E-02 7.331E-08 6.803E-03 7.230E-04 1.854E-02 1.854E-02 
2.000E+01 1.407E-07 1.016E-02 6.555E-08 7.186E-03 7.878E-04 1.813E-02 1.813E-02 
2.200E+01 1.163E-07 9.435E-03 5.930E-08 7.535E-03 8.480E-04 1.782E-02 1.782E-02 
2.400E+01 9.775E-08 8.817E-03 5.412E-08 7.853E-03 9.033E-04 1.757E-02 1.757E-02 
2.600E+01 8.329E-08 8.278E-03 4.978E-08 8.143E-03 9.548E-04 1.738E-02 1.738E-02 
2.800E+01 7.180E-08 7.809E-03 4.607E-08 8.412E-03 1.003E-03 1.722E-02 1.722E-02 
3.000E+01 6.255E-08 7.396E-03 4.289E-08 8.661E-03 1.048E-03 1.710E-02 1.710E-02 
4.000E+01 3.519E-08 5.875E-03 3.186E-08 9.674E-03 1.237E-03 1.679E-02 1.679E-02 
5.000E+01 2.252E-08 4.906E-03 2.534E-08 1.045E-02 1.385E-03 1.674E-02 1.674E-02 
6.000E+01 1.564E-08 4.225E-03 2.104E-08 1.106E-02 1.505E-03 1.679E-02 1.679E-02 
8.000E+01 8.796E-09 3.333E-03 1.571E-08 1.199E-02 1.693E-03 1.702E-02 1.702E-02 
1.000E+02 5.630E-09 2.767E-03 1.253E-08 1.267E-02 1.834E-03 1.727E-02 1.727E-02 
1.500E+02 2.502E-09 1.970E-03 8.317E-09 1.380E-02 2.081E-03 1.785E-02 1.785E-02 
2.000E+02 1.407E-09 1.545E-03 6.228E-09 1.450E-02 2.243E-03 1.829E-02 1.829E-02 
3.000E+02 6.255E-10 1.095E-03 4.142E-09 1.534E-02 2.453E-03 1.888E-02 1.888E-02 
4.000E+02 3.519E-10 8.574E-04 3.105E-09 1.583E-02 2.584E-03 1.927E-02 1.927E-02 
5.000E+02 2.251E-10 7.099E-04 2.482E-09 1.615E-02 2.675E-03 1.954E-02 1.954E-02 
6.000E+02 1.564E-10 6.079E-04 2.068E-09 1.639E-02 2.742E-03 1.974E-02 1.974E-02 
8.000E+02 8.796E-11 4.747E-04 1.550E-09 1.670E-02 2.838E-03 2.002E-02 2.002E-02 
1.000E+03 5.630E-11 3.905E-04 1.240E-09 1.691E-02 2.902E-03 2.020E-02 2.020E-02 
1.500E+03 2.502E-11 2.727E-04 8.260E-10 1.721E-02 2.999E-03 2.048E-02 2.048E-02 
2.000E+03 1.407E-11 2.111E-04 6.194E-10 1.738E-02 3.054E-03 2.064E-02 2.064E-02 
3.000E+03 6.255E-12 1.467E-04 4.129E-10 1.755E-02 3.114E-03 2.082E-02 2.082E-02 
4.000E+03 3.519E-12 1.133E-04 3.096E-10 1.765E-02 3.150E-03 2.091E-02 2.091E-02 
5.000E+03 2.251E-12 9.264E-05 2.477E-10 1.771E-02 3.172E-03 2.097E-02 2.097E-02 
6.000E+03 1.564E-12 7.856E-05 2.064E-10 1.776E-02 3.188E-03 2.102E-02 2.102E-02 
8.000E+03 8.796E-13 6.050E-05 1.548E-10 1.781E-02 3.208E-03 2.108E-02 2.108E-02 
1.000E+04 5.630E-13 4.939E-05 1.238E-10 1.784E-02 3.222E-03 2.111E-02 2.111E-02 
1.500E+04 2.502E-13 3.414E-05 8.254E-11 1.789E-02 3.240E-03 2.117E-02 2.117E-02 
2.000E+04 1.407E-13 2.625E-05 6.191E-11 1.792E-02 3.250E-03 2.120E-02 2.120E-02 
3.000E+04 6.255E-14 1.811E-05 4.129E-11 1.795E-02 3.260E-03 2.123E-02 2.123E-02 
4.000E+04 3.519E-14 1.390E-05 3.096E-11 1.796E-02 3.267E-03 2.124E-02 2.124E-02 
5.000E+04 2.251E-14 1.132E-05 2.476E-11 1.797E-02 3.270E-03 2.125E-02 2.125E-02 
6.000E+04 1.564E-14 9.568E-06 2.064E-11 1.798E-02 3.273E-03 2.126E-02 2.126E-02 
8.000E+04 8.796E-15 7.337E-06 1.548E-11 1.798E-02 3.275E-03 2.127E-02 2.127E-02 
1.000E+05 5.630E-15 5.967E-06 1.238E-11 1.799E-02 3.278E-03 2.127E-02 2.127E-02 