Photon    Coherent Incoher. Photoel. Nuclear  Electron Tot. w/  Tot. wo/ 
Energy    Scatter. Scatter. Absorb.  Pr. Prd. Pr. Prd. Coherent Coherent 

1.000E-03 8.000E+00 5.271E-03 8.147E+03 0.000E+00 0.000E+00 8.155E+03 8.147E+03 
1.500E-03 7.569E+00 9.684E-03 3.288E+03 0.000E+00 0.000E+00 3.296E+03 3.288E+03 
2.000E-03 7.102E+00 1.405E-02 1.658E+03 0.000E+00 0.000E+00 1.665E+03 1.658E+03 
3.000E-03 6.204E+00 2.202E-02 6.077E+02 0.000E+00 0.000E+00 6.140E+02 6.078E+02 
3.929E-03 5.464E+00 2.858E-02 3.060E+02 0.000E+00 0.000E+00 3.114E+02 3.060E+02 
3.929E-03 5.464E+00 2.858E-02 9.202E+02 0.000E+00 0.000E+00 9.257E+02 9.203E+02 
4.000E-03 5.408E+00 2.906E-02 9.339E+02 0.000E+00 0.000E+00 9.394E+02 9.340E+02 
4.156E-03 5.296E+00 3.009E-02 8.416E+02 0.000E+00 0.000E+00 8.469E+02 8.416E+02 
4.156E-03 5.296E+00 3.009E-02 1.139E+03 0.000E+00 0.000E+00 1.145E+03 1.139E+03 
4.308E-03 5.189E+00 3.108E-02 1.049E+03 0.000E+00 0.000E+00 1.055E+03 1.049E+03 
4.465E-03 5.078E+00 3.208E-02 9.659E+02 0.000E+00 0.000E+00 9.710E+02 9.659E+02 
4.465E-03 5.078E+00 3.208E-02 1.112E+03 0.000E+00 0.000E+00 1.117E+03 1.112E+03 
5.000E-03 4.722E+00 3.540E-02 8.421E+02 0.000E+00 0.000E+00 8.469E+02 8.422E+02 
6.000E-03 4.142E+00 4.122E-02 5.251E+02 0.000E+00 0.000E+00 5.292E+02 5.251E+02 
7.000E-03 3.657E+00 4.661E-02 3.503E+02 0.000E+00 0.000E+00 3.540E+02 3.504E+02 
8.000E-03 3.256E+00 5.164E-02 2.467E+02 0.000E+00 0.000E+00 2.501E+02 2.468E+02 
9.000E-03 2.924E+00 5.634E-02 1.800E+02 0.000E+00 0.000E+00 1.829E+02 1.800E+02 
1.000E-02 2.647E+00 6.067E-02 1.357E+02 0.000E+00 0.000E+00 1.384E+02 1.358E+02 
1.100E-02 2.414E+00 6.463E-02 1.046E+02 0.000E+00 0.000E+00 1.071E+02 1.047E+02 
1.300E-02 2.038E+00 7.155E-02 6.626E+01 0.000E+00 0.000E+00 6.837E+01 6.633E+01 
1.500E-02 1.744E+00 7.731E-02 4.482E+01 0.000E+00 0.000E+00 4.664E+01 4.490E+01 
1.700E-02 1.507E+00 8.214E-02 3.165E+01 0.000E+00 0.000E+00 3.324E+01 3.173E+01 
1.900E-02 1.311E+00 8.624E-02 2.323E+01 0.000E+00 0.000E+00 2.463E+01 2.332E+01 
2.000E-02 1.227E+00 8.807E-02 2.014E+01 0.000E+00 0.000E+00 2.146E+01 2.023E+01 
2.100E-02 1.149E+00 8.976E-02 1.756E+01 0.000E+00 0.000E+00 1.880E+01 1.765E+01 
2.300E-02 1.014E+00 9.282E-02 1.359E+01 0.000E+00 0.000E+00 1.470E+01 1.368E+01 
2.500E-02 9.011E-01 9.550E-02 1.075E+01 0.000E+00 0.000E+00 1.174E+01 1.084E+01 
2.700E-02 8.064E-01 9.785E-02 8.653E+00 0.000E+00 0.000E+00 9.557E+00 8.750E+00 
2.900E-02 7.266E-01 9.994E-02 7.075E+00 0.000E+00 0.000E+00 7.902E+00 7.175E+00 
2.920E-02 7.193E-01 1.001E-01 6.940E+00 0.000E+00 0.000E+00 7.759E+00 7.040E+00 
2.920E-02 7.193E-01 1.001E-01 4.277E+01 0.000E+00 0.000E+00 4.358E+01 4.287E+01 
3.000E-02 6.914E-01 1.009E-01 4.042E+01 0.000E+00 0.000E+00 4.121E+01 4.052E+01 
3.100E-02 6.590E-01 1.018E-01 3.757E+01 0.000E+00 0.000E+00 3.833E+01 3.767E+01 
3.300E-02 6.011E-01 1.034E-01 3.220E+01 0.000E+00 0.000E+00 3.290E+01 3.230E+01 
3.500E-02 5.510E-01 1.048E-01 2.750E+01 0.000E+00 0.000E+00 2.815E+01 2.760E+01 
3.700E-02 5.073E-01 1.061E-01 2.353E+01 0.000E+00 0.000E+00 2.414E+01 2.364E+01 
3.900E-02 4.689E-01 1.072E-01 2.026E+01 0.000E+00 0.000E+00 2.084E+01 2.037E+01 
4.000E-02 4.513E-01 1.077E-01 1.887E+01 0.000E+00 0.000E+00 1.943E+01 1.897E+01 
4.100E-02 4.348E-01 1.082E-01 1.761E+01 0.000E+00 0.000E+00 1.815E+01 1.772E+01 
4.300E-02 4.044E-01 1.090E-01 1.545E+01 0.000E+00 0.000E+00 1.596E+01 1.556E+01 
4.500E-02 3.771E-01 1.098E-01 1.365E+01 0.000E+00 0.000E+00 1.414E+01 1.376E+01 
4.700E-02 3.525E-01 1.104E-01 1.214E+01 0.000E+00 0.000E+00 1.260E+01 1.225E+01 
4.900E-02 3.302E-01 1.110E-01 1.085E+01 0.000E+00 0.000E+00 1.129E+01 1.096E+01 
5.000E-02 3.199E-01 1.113E-01 1.027E+01 0.000E+00 0.000E+00 1.070E+01 1.038E+01 
5.100E-02 3.099E-01 1.115E-01 9.729E+00 0.000E+00 0.000E+00 1.015E+01 9.841E+00 
5.300E-02 2.914E-01 1.119E-01 8.758E+00 0.000E+00 0.000E+00 9.161E+00 8.869E+00 
5.500E-02 2.744E-01 1.123E-01 7.909E+00 0.000E+00 0.000E+00 8.296E+00 8.021E+00 
5.700E-02 2.589E-01 1.126E-01 7.166E+00 0.000E+00 0.000E+00 7.537E+00 7.278E+00 
5.900E-02 2.445E-01 1.128E-01 6.512E+00 0.000E+00 0.000E+00 6.869E+00 6.625E+00 
6.000E-02 2.378E-01 1.129E-01 6.214E+00 0.000E+00 0.000E+00 6.565E+00 6.327E+00 
6.100E-02 2.314E-01 1.130E-01 5.935E+00 0.000E+00 0.000E+00 6.279E+00 6.048E+00 
6.300E-02 2.192E-01 1.132E-01 5.424E+00 0.000E+00 0.000E+00 5.757E+00 5.537E+00 
6.500E-02 2.080E-01 1.133E-01 4.971E+00 0.000E+00 0.000E+00 5.292E+00 5.084E+00 
6.700E-02 1.976E-01 1.134E-01 4.566E+00 0.000E+00 0.000E+00 4.877E+00 4.680E+00 
6.900E-02 1.879E-01 1.134E-01 4.204E+00 0.000E+00 0.000E+00 4.506E+00 4.318E+00 
7.100E-02 1.789E-01 1.135E-01 3.880E+00 0.000E+00 0.000E+00 4.172E+00 3.993E+00 
7.300E-02 1.706E-01 1.134E-01 3.588E+00 0.000E+00 0.000E+00 3.872E+00 3.701E+00 
7.500E-02 1.628E-01 1.134E-01 3.325E+00 0.000E+00 0.000E+00 3.601E+00 3.438E+00 
7.700E-02 1.556E-01 1.134E-01 3.086E+00 0.000E+00 0.000E+00 3.355E+00 3.200E+00 
7.900E-02 1.489E-01 1.133E-01 2.870E+00 0.000E+00 0.000E+00 3.132E+00 2.984E+00 
8.000E-02 1.456E-01 1.132E-01 2.770E+00 0.000E+00 0.000E+00 3.029E+00 2.883E+00 
8.100E-02 1.425E-01 1.132E-01 2.674E+00 0.000E+00 0.000E+00 2.930E+00 2.787E+00 
8.300E-02 1.366E-01 1.131E-01 2.495E+00 0.000E+00 0.000E+00 2.745E+00 2.608E+00 
8.500E-02 1.311E-01 1.129E-01 2.332E+00 0.000E+00 0.000E+00 2.576E+00 2.445E+00 
8.700E-02 1.259E-01 1.128E-01 2.183E+00 0.000E+00 0.000E+00 2.421E+00 2.296E+00 
8.900E-02 1.210E-01 1.126E-01 2.046E+00 0.000E+00 0.000E+00 2.280E+00 2.159E+00 
9.100E-02 1.164E-01 1.124E-01 1.920E+00 0.000E+00 0.000E+00 2.149E+00 2.033E+00 
9.300E-02 1.120E-01 1.122E-01 1.805E+00 0.000E+00 0.000E+00 2.029E+00 1.917E+00 
9.500E-02 1.079E-01 1.120E-01 1.698E+00 0.000E+00 0.000E+00 1.918E+00 1.810E+00 
9.700E-02 1.040E-01 1.118E-01 1.600E+00 0.000E+00 0.000E+00 1.816E+00 1.712E+00 
9.900E-02 1.004E-01 1.116E-01 1.509E+00 0.000E+00 0.000E+00 1.721E+00 1.621E+00 
1.000E-01 9.862E-02 1.115E-01 1.467E+00 0.000E+00 0.000E+00 1.677E+00 1.578E+00 
1.010E-01 9.691E-02 1.114E-01 1.425E+00 0.000E+00 0.000E+00 1.634E+00 1.537E+00 
1.030E-01 9.362E-02 1.112E-01 1.347E+00 0.000E+00 0.000E+00 1.552E+00 1.459E+00 
1.050E-01 9.050E-02 1.109E-01 1.275E+00 0.000E+00 0.000E+00 1.477E+00 1.386E+00 
1.070E-01 8.754E-02 1.107E-01 1.208E+00 0.000E+00 0.000E+00 1.406E+00 1.319E+00 
1.090E-01 8.472E-02 1.104E-01 1.145E+00 0.000E+00 0.000E+00 1.340E+00 1.256E+00 
1.110E-01 8.204E-02 1.102E-01 1.087E+00 0.000E+00 0.000E+00 1.279E+00 1.197E+00 
1.130E-01 7.949E-02 1.099E-01 1.033E+00 0.000E+00 0.000E+00 1.222E+00 1.143E+00 
1.150E-01 7.706E-02 1.097E-01 9.818E-01 0.000E+00 0.000E+00 1.168E+00 1.091E+00 
1.170E-01 7.474E-02 1.094E-01 9.342E-01 0.000E+00 0.000E+00 1.118E+00 1.044E+00 
1.190E-01 7.252E-02 1.091E-01 8.897E-01 0.000E+00 0.000E+00 1.071E+00 9.989E-01 
1.210E-01 7.041E-02 1.089E-01 8.480E-01 0.000E+00 0.000E+00 1.027E+00 9.569E-01 
1.230E-01 6.838E-02 1.086E-01 8.089E-01 0.000E+00 0.000E+00 9.859E-01 9.175E-01 
1.250E-01 6.645E-02 1.083E-01 7.721E-01 0.000E+00 0.000E+00 9.469E-01 8.805E-01 
1.270E-01 6.459E-02 1.080E-01 7.376E-01 0.000E+00 0.000E+00 9.102E-01 8.457E-01 
1.290E-01 6.281E-02 1.078E-01 7.051E-01 0.000E+00 0.000E+00 8.757E-01 8.129E-01 
1.310E-01 6.111E-02 1.075E-01 6.745E-01 0.000E+00 0.000E+00 8.431E-01 7.820E-01 
1.330E-01 5.947E-02 1.072E-01 6.457E-01 0.000E+00 0.000E+00 8.124E-01 7.529E-01 
1.350E-01 5.791E-02 1.069E-01 6.185E-01 0.000E+00 0.000E+00 7.833E-01 7.254E-01 
1.370E-01 5.640E-02 1.067E-01 5.928E-01 0.000E+00 0.000E+00 7.558E-01 6.994E-01 
1.390E-01 5.495E-02 1.064E-01 5.685E-01 0.000E+00 0.000E+00 7.298E-01 6.749E-01 
1.410E-01 5.356E-02 1.061E-01 5.455E-01 0.000E+00 0.000E+00 7.052E-01 6.517E-01 
1.430E-01 5.221E-02 1.058E-01 5.238E-01 0.000E+00 0.000E+00 6.819E-01 6.296E-01 
1.450E-01 5.092E-02 1.056E-01 5.032E-01 0.000E+00 0.000E+00 6.597E-01 6.088E-01 
1.470E-01 4.968E-02 1.053E-01 4.837E-01 0.000E+00 0.000E+00 6.387E-01 5.890E-01 
1.490E-01 4.848E-02 1.050E-01 4.653E-01 0.000E+00 0.000E+00 6.187E-01 5.703E-01 
1.500E-01 4.790E-02 1.049E-01 4.564E-01 0.000E+00 0.000E+00 6.091E-01 5.612E-01 
1.510E-01 4.733E-02 1.047E-01 4.477E-01 0.000E+00 0.000E+00 5.998E-01 5.524E-01 
1.530E-01 4.621E-02 1.044E-01 4.310E-01 0.000E+00 0.000E+00 5.817E-01 5.355E-01 
1.550E-01 4.514E-02 1.042E-01 4.152E-01 0.000E+00 0.000E+00 5.645E-01 5.194E-01 
1.570E-01 4.410E-02 1.039E-01 4.001E-01 0.000E+00 0.000E+00 5.481E-01 5.040E-01 
1.590E-01 4.310E-02 1.036E-01 3.858E-01 0.000E+00 0.000E+00 5.325E-01 4.894E-01 
1.610E-01 4.213E-02 1.033E-01 3.721E-01 0.000E+00 0.000E+00 5.176E-01 4.755E-01 
1.630E-01 4.119E-02 1.031E-01 3.591E-01 0.000E+00 0.000E+00 5.034E-01 4.622E-01 
1.650E-01 4.028E-02 1.028E-01 3.467E-01 0.000E+00 0.000E+00 4.898E-01 4.495E-01 
1.670E-01 3.941E-02 1.025E-01 3.349E-01 0.000E+00 0.000E+00 4.769E-01 4.374E-01 
1.690E-01 3.856E-02 1.023E-01 3.236E-01 0.000E+00 0.000E+00 4.644E-01 4.259E-01 
1.710E-01 3.774E-02 1.020E-01 3.129E-01 0.000E+00 0.000E+00 4.526E-01 4.148E-01 
1.730E-01 3.694E-02 1.017E-01 3.026E-01 0.000E+00 0.000E+00 4.412E-01 4.043E-01 
1.750E-01 3.617E-02 1.015E-01 2.927E-01 0.000E+00 0.000E+00 4.303E-01 3.942E-01 
1.770E-01 3.543E-02 1.012E-01 2.833E-01 0.000E+00 0.000E+00 4.199E-01 3.845E-01 
1.790E-01 3.470E-02 1.009E-01 2.743E-01 0.000E+00 0.000E+00 4.099E-01 3.752E-01 
1.810E-01 3.400E-02 1.007E-01 2.657E-01 0.000E+00 0.000E+00 4.003E-01 3.663E-01 
1.830E-01 3.332E-02 1.004E-01 2.574E-01 0.000E+00 0.000E+00 3.911E-01 3.578E-01 
1.850E-01 3.266E-02 1.001E-01 2.495E-01 0.000E+00 0.000E+00 3.823E-01 3.496E-01 
1.870E-01 3.202E-02 9.987E-02 2.419E-01 0.000E+00 0.000E+00 3.738E-01 3.418E-01 
1.890E-01 3.139E-02 9.962E-02 2.346E-01 0.000E+00 0.000E+00 3.657E-01 3.343E-01 
1.910E-01 3.079E-02 9.936E-02 2.277E-01 0.000E+00 0.000E+00 3.578E-01 3.270E-01 
1.930E-01 3.020E-02 9.910E-02 2.210E-01 0.000E+00 0.000E+00 3.503E-01 3.201E-01 
1.950E-01 2.963E-02 9.885E-02 2.145E-01 0.000E+00 0.000E+00 3.430E-01 3.134E-01 
1.970E-01 2.908E-02 9.859E-02 2.083E-01 0.000E+00 0.000E+00 3.360E-01 3.069E-01 
1.990E-01 2.854E-02 9.834E-02 2.024E-01 0.000E+00 0.000E+00 3.293E-01 3.007E-01 
2.000E-01 2.827E-02 9.821E-02 1.995E-01 0.000E+00 0.000E+00 3.260E-01 2.977E-01 
3.000E-01 1.315E-02 8.720E-02 6.351E-02 0.000E+00 0.000E+00 1.639E-01 1.507E-01 
4.000E-01 7.564E-03 7.888E-02 2.915E-02 0.000E+00 0.000E+00 1.156E-01 1.080E-01 
5.000E-01 4.906E-03 7.244E-02 1.639E-02 0.000E+00 0.000E+00 9.374E-02 8.883E-02 
6.000E-01 3.435E-03 6.722E-02 1.048E-02 0.000E+00 0.000E+00 8.113E-02 7.770E-02 
8.000E-01 1.951E-03 5.925E-02 5.418E-03 0.000E+00 0.000E+00 6.662E-02 6.467E-02 
1.000E+00 1.255E-03 5.337E-02 3.381E-03 0.000E+00 0.000E+00 5.800E-02 5.675E-02 
1.022E+00 1.202E-03 5.281E-02 3.217E-03 0.000E+00 0.000E+00 5.723E-02 5.603E-02 
1.250E+00 8.061E-04 4.779E-02 2.170E-03 1.721E-04 0.000E+00 5.094E-02 5.013E-02 
1.500E+00 5.606E-04 4.347E-02 1.554E-03 7.995E-04 0.000E+00 4.638E-02 4.582E-02 
2.000E+00 3.161E-04 3.712E-02 9.466E-04 2.734E-03 0.000E+00 4.112E-02 4.080E-02 
2.044E+00 3.027E-04 3.667E-02 9.136E-04 2.923E-03 0.000E+00 4.081E-02 4.050E-02 
3.000E+00 1.407E-04 2.923E-02 5.031E-04 6.985E-03 1.022E-05 3.686E-02 3.672E-02 
4.000E+00 7.919E-05 2.439E-02 3.337E-04 1.077E-02 4.170E-05 3.561E-02 3.553E-02 
5.000E+00 5.069E-05 2.106E-02 2.471E-04 1.404E-02 8.299E-05 3.548E-02 3.543E-02 
6.000E+00 3.521E-05 1.862E-02 1.951E-04 1.686E-02 1.273E-04 3.583E-02 3.580E-02 
7.000E+00 2.587E-05 1.674E-02 1.608E-04 1.937E-02 1.715E-04 3.647E-02 3.644E-02 
8.000E+00 1.980E-05 1.523E-02 1.365E-04 2.163E-02 2.143E-04 3.724E-02 3.722E-02 
9.000E+00 1.565E-05 1.400E-02 1.185E-04 2.369E-02 2.552E-04 3.808E-02 3.806E-02 
1.000E+01 1.268E-05 1.297E-02 1.046E-04 2.557E-02 2.940E-04 3.895E-02 3.894E-02 
1.100E+01 1.048E-05 1.210E-02 9.350E-05 2.730E-02 3.307E-04 3.984E-02 3.983E-02 
1.200E+01 8.802E-06 1.135E-02 8.457E-05 2.890E-02 3.654E-04 4.071E-02 4.070E-02 
1.300E+01 7.503E-06 1.069E-02 7.716E-05 3.039E-02 3.980E-04 4.156E-02 4.155E-02 
1.400E+01 6.468E-06 1.012E-02 7.092E-05 3.176E-02 4.290E-04 4.238E-02 4.237E-02 
1.500E+01 5.636E-06 9.603E-03 6.564E-05 3.302E-02 4.584E-04 4.315E-02 4.315E-02 
1.600E+01 4.952E-06 9.147E-03 6.108E-05 3.420E-02 4.863E-04 4.390E-02 4.389E-02 
1.800E+01 3.913E-06 8.360E-03 5.357E-05 3.635E-02 5.377E-04 4.530E-02 4.530E-02 
2.000E+01 3.169E-06 7.706E-03 4.772E-05 3.828E-02 5.849E-04 4.662E-02 4.661E-02 
2.200E+01 2.619E-06 7.158E-03 4.301E-05 4.002E-02 6.280E-04 4.785E-02 4.785E-02 
2.400E+01 2.201E-06 6.691E-03 3.914E-05 4.161E-02 6.676E-04 4.901E-02 4.901E-02 
2.600E+01 1.875E-06 6.280E-03 3.591E-05 4.306E-02 7.036E-04 5.008E-02 5.008E-02 
2.800E+01 1.617E-06 5.925E-03 3.317E-05 4.438E-02 7.376E-04 5.108E-02 5.108E-02 
3.000E+01 1.409E-06 5.611E-03 3.081E-05 4.561E-02 7.691E-04 5.202E-02 5.202E-02 
4.000E+01 7.924E-07 4.459E-03 2.274E-05 5.057E-02 8.989E-04 5.595E-02 5.595E-02 
5.000E+01 5.071E-07 3.722E-03 1.801E-05 5.423E-02 9.979E-04 5.897E-02 5.897E-02 
6.000E+01 3.522E-07 3.207E-03 1.491E-05 5.712E-02 1.076E-03 6.142E-02 6.142E-02 
8.000E+01 1.981E-07 2.529E-03 1.109E-05 6.133E-02 1.194E-03 6.507E-02 6.507E-02 
1.000E+02 1.268E-07 2.099E-03 8.827E-06 6.438E-02 1.279E-03 6.776E-02 6.776E-02 
1.500E+02 5.636E-08 1.495E-03 5.844E-06 6.914E-02 1.421E-03 7.207E-02 7.207E-02 
2.000E+02 3.169E-08 1.172E-03 4.370E-06 7.199E-02 1.510E-03 7.467E-02 7.467E-02 
3.000E+02 1.409E-08 8.310E-04 2.903E-06 7.533E-02 1.618E-03 7.779E-02 7.779E-02 
4.000E+02 7.924E-09 6.509E-04 2.174E-06 7.721E-02 1.683E-03 7.955E-02 7.955E-02 
5.000E+02 5.071E-09 5.388E-04 1.737E-06 7.848E-02 1.728E-03 8.075E-02 8.075E-02 
6.000E+02 3.521E-09 4.612E-04 1.447E-06 7.939E-02 1.760E-03 8.162E-02 8.162E-02 
8.000E+02 1.981E-09 3.602E-04 1.084E-06 8.061E-02 1.805E-03 8.278E-02 8.278E-02 
1.000E+03 1.268E-09 2.963E-04 8.670E-07 8.137E-02 1.835E-03 8.350E-02 8.350E-02 
1.500E+03 5.636E-10 2.069E-04 5.773E-07 8.249E-02 1.880E-03 8.457E-02 8.457E-02 
2.000E+03 3.169E-10 1.602E-04 4.330E-07 8.310E-02 1.905E-03 8.516E-02 8.516E-02 
3.000E+03 1.409E-10 1.114E-04 2.886E-07 8.375E-02 1.933E-03 8.580E-02 8.580E-02 
4.000E+03 7.924E-11 8.599E-05 2.164E-07 8.411E-02 1.949E-03 8.615E-02 8.615E-02 
5.000E+03 5.071E-11 7.026E-05 1.731E-07 8.431E-02 1.959E-03 8.634E-02 8.634E-02 
6.000E+03 3.521E-11 5.961E-05 1.442E-07 8.452E-02 1.966E-03 8.654E-02 8.654E-02 
8.000E+03 1.981E-11 4.592E-05 1.082E-07 8.472E-02 1.975E-03 8.674E-02 8.674E-02 
1.000E+04 1.268E-11 3.749E-05 8.655E-08 8.482E-02 1.981E-03 8.684E-02 8.684E-02 
1.500E+04 5.636E-12 2.591E-05 5.768E-08 8.502E-02 1.989E-03 8.704E-02 8.704E-02 
2.000E+04 3.169E-12 1.992E-05 4.326E-08 8.512E-02 1.994E-03 8.714E-02 8.714E-02 
3.000E+04 1.409E-12 1.374E-05 2.884E-08 8.523E-02 1.998E-03 8.724E-02 8.724E-02 
4.000E+04 7.924E-13 1.055E-05 2.163E-08 8.528E-02 2.001E-03 8.729E-02 8.729E-02 
5.000E+04 5.071E-13 8.589E-06 1.730E-08 8.528E-02 2.003E-03 8.729E-02 8.729E-02 
6.000E+04 3.521E-13 7.259E-06 1.442E-08 8.533E-02 2.004E-03 8.734E-02 8.734E-02 
8.000E+04 1.981E-13 5.565E-06 1.082E-08 8.533E-02 2.005E-03 8.734E-02 8.734E-02 
1.000E+05 1.268E-13 4.529E-06 8.649E-09 8.538E-02 2.006E-03 8.739E-02 8.739E-02 