Photon    Coherent Incoher. Photoel. Nuclear  Electron Tot. w/  Tot. wo/ 
Energy    Scatter. Scatter. Absorb.  Pr. Prd. Pr. Prd. Coherent Coherent 

1.000E-03 3.858E+00 9.771E-03 3.486E+03 0.000E+00 0.000E+00 3.490E+03 3.486E+03 
1.500E-03 3.589E+00 1.746E-02 1.260E+03 0.000E+00 0.000E+00 1.263E+03 1.260E+03 
1.560E-03 3.557E+00 1.838E-02 1.139E+03 0.000E+00 0.000E+00 1.143E+03 1.139E+03 
1.560E-03 3.557E+00 1.838E-02 1.956E+03 0.000E+00 0.000E+00 1.960E+03 1.956E+03 
2.000E-03 3.320E+00 2.509E-02 1.069E+03 0.000E+00 0.000E+00 1.072E+03 1.069E+03 
2.080E-03 3.278E+00 2.629E-02 9.684E+02 0.000E+00 0.000E+00 9.717E+02 9.685E+02 
2.080E-03 3.278E+00 2.629E-02 1.845E+03 0.000E+00 0.000E+00 1.849E+03 1.845E+03 
2.117E-03 3.258E+00 2.685E-02 1.750E+03 0.000E+00 0.000E+00 1.753E+03 1.750E+03 
2.155E-03 3.239E+00 2.741E-02 1.659E+03 0.000E+00 0.000E+00 1.662E+03 1.659E+03 
2.155E-03 3.239E+00 2.741E-02 2.073E+03 0.000E+00 0.000E+00 2.076E+03 2.073E+03 
2.261E-03 3.184E+00 2.897E-02 1.843E+03 0.000E+00 0.000E+00 1.846E+03 1.843E+03 
2.373E-03 3.129E+00 3.059E-02 1.638E+03 0.000E+00 0.000E+00 1.641E+03 1.638E+03 
2.373E-03 3.129E+00 3.059E-02 1.801E+03 0.000E+00 0.000E+00 1.804E+03 1.801E+03 
3.000E-03 2.837E+00 3.936E-02 9.897E+02 0.000E+00 0.000E+00 9.926E+02 9.897E+02 
4.000E-03 2.433E+00 5.190E-02 4.660E+02 0.000E+00 0.000E+00 4.685E+02 4.661E+02 
5.000E-03 2.104E+00 6.271E-02 2.561E+02 0.000E+00 0.000E+00 2.582E+02 2.561E+02 
6.000E-03 1.836E+00 7.188E-02 1.557E+02 0.000E+00 0.000E+00 1.576E+02 1.558E+02 
8.000E-03 1.435E+00 8.620E-02 7.019E+01 0.000E+00 0.000E+00 7.171E+01 7.028E+01 
1.000E-02 1.149E+00 9.674E-02 3.751E+01 0.000E+00 0.000E+00 3.876E+01 3.761E+01 
1.500E-02 7.070E-01 1.142E-01 1.182E+01 0.000E+00 0.000E+00 1.264E+01 1.193E+01 
1.704E-02 5.973E-01 1.190E-01 8.189E+00 0.000E+00 0.000E+00 8.905E+00 8.308E+00 
1.704E-02 5.973E-01 1.190E-01 4.717E+01 0.000E+00 0.000E+00 4.789E+01 4.729E+01 
2.000E-02 4.784E-01 1.246E-01 3.126E+01 0.000E+00 0.000E+00 3.186E+01 3.139E+01 
3.000E-02 2.682E-01 1.352E-01 1.045E+01 0.000E+00 0.000E+00 1.085E+01 1.058E+01 
4.000E-02 1.725E-01 1.393E-01 4.684E+00 0.000E+00 0.000E+00 4.995E+00 4.823E+00 
5.000E-02 1.196E-01 1.402E-01 2.482E+00 0.000E+00 0.000E+00 2.742E+00 2.623E+00 
6.000E-02 8.766E-02 1.397E-01 1.467E+00 0.000E+00 0.000E+00 1.694E+00 1.606E+00 
8.000E-02 5.319E-02 1.363E-01 6.328E-01 0.000E+00 0.000E+00 8.223E-01 7.691E-01 
1.000E-01 3.587E-02 1.321E-01 3.275E-01 0.000E+00 0.000E+00 4.954E-01 4.596E-01 
1.500E-01 1.719E-02 1.215E-01 9.821E-02 0.000E+00 0.000E+00 2.369E-01 2.197E-01 
2.000E-01 1.002E-02 1.124E-01 4.192E-02 0.000E+00 0.000E+00 1.644E-01 1.543E-01 
3.000E-01 4.608E-03 9.862E-02 1.296E-02 0.000E+00 0.000E+00 1.162E-01 1.116E-01 
4.000E-01 2.636E-03 8.872E-02 5.842E-03 0.000E+00 0.000E+00 9.720E-02 9.456E-02 
5.000E-01 1.703E-03 8.117E-02 3.248E-03 0.000E+00 0.000E+00 8.612E-02 8.442E-02 
6.000E-01 1.189E-03 7.519E-02 2.062E-03 0.000E+00 0.000E+00 7.844E-02 7.725E-02 
8.000E-01 6.730E-04 6.615E-02 1.058E-03 0.000E+00 0.000E+00 6.788E-02 6.721E-02 
1.000E+00 4.320E-04 5.952E-02 6.593E-04 0.000E+00 0.000E+00 6.061E-02 6.018E-02 
1.022E+00 4.139E-04 5.889E-02 6.269E-04 0.000E+00 0.000E+00 5.994E-02 5.952E-02 
1.250E+00 2.771E-04 5.325E-02 4.232E-04 6.703E-05 0.000E+00 5.401E-02 5.374E-02 
1.500E+00 1.926E-04 4.840E-02 3.040E-04 3.317E-04 0.000E+00 4.923E-02 4.904E-02 
2.000E+00 1.085E-04 4.132E-02 1.861E-04 1.219E-03 0.000E+00 4.284E-02 4.273E-02 
2.044E+00 1.039E-04 4.081E-02 1.796E-04 1.309E-03 0.000E+00 4.240E-02 4.230E-02 
3.000E+00 4.827E-05 3.252E-02 9.975E-05 3.304E-03 1.138E-05 3.598E-02 3.593E-02 
4.000E+00 2.715E-05 2.712E-02 6.660E-05 5.225E-03 4.644E-05 3.249E-02 3.246E-02 
5.000E+00 1.738E-05 2.343E-02 4.951E-05 6.915E-03 9.251E-05 3.050E-02 3.048E-02 
6.000E+00 1.207E-05 2.071E-02 3.926E-05 8.401E-03 1.420E-04 2.930E-02 2.929E-02 
7.000E+00 8.869E-06 1.861E-02 3.242E-05 9.725E-03 1.914E-04 2.857E-02 2.856E-02 
8.000E+00 6.789E-06 1.694E-02 2.760E-05 1.092E-02 2.394E-04 2.813E-02 2.812E-02 
9.000E+00 5.364E-06 1.557E-02 2.400E-05 1.200E-02 2.853E-04 2.789E-02 2.788E-02 
1.000E+01 4.345E-06 1.443E-02 2.122E-05 1.299E-02 3.290E-04 2.777E-02 2.777E-02 
1.100E+01 3.592E-06 1.346E-02 1.900E-05 1.389E-02 3.704E-04 2.774E-02 2.774E-02 
1.200E+01 3.018E-06 1.262E-02 1.720E-05 1.472E-02 4.095E-04 2.777E-02 2.776E-02 
1.300E+01 2.572E-06 1.189E-02 1.571E-05 1.548E-02 4.466E-04 2.783E-02 2.783E-02 
1.400E+01 2.217E-06 1.125E-02 1.446E-05 1.618E-02 4.818E-04 2.793E-02 2.793E-02 
1.500E+01 1.932E-06 1.068E-02 1.338E-05 1.684E-02 5.150E-04 2.805E-02 2.805E-02 
1.600E+01 1.698E-06 1.017E-02 1.246E-05 1.746E-02 5.469E-04 2.819E-02 2.819E-02 
1.800E+01 1.341E-06 9.293E-03 1.095E-05 1.859E-02 6.060E-04 2.850E-02 2.850E-02 
2.000E+01 1.087E-06 8.570E-03 9.760E-06 1.960E-02 6.598E-04 2.884E-02 2.884E-02 
2.200E+01 8.980E-07 7.961E-03 8.801E-06 2.052E-02 7.095E-04 2.920E-02 2.920E-02 
2.400E+01 7.545E-07 7.440E-03 8.015E-06 2.136E-02 7.550E-04 2.956E-02 2.956E-02 
2.600E+01 6.428E-07 6.985E-03 7.358E-06 2.212E-02 7.974E-04 2.991E-02 2.991E-02 
2.800E+01 5.544E-07 6.589E-03 6.800E-06 2.282E-02 8.369E-04 3.025E-02 3.025E-02 
3.000E+01 4.830E-07 6.239E-03 6.319E-06 2.347E-02 8.736E-04 3.058E-02 3.058E-02 
4.000E+01 2.716E-07 4.957E-03 4.669E-06 2.610E-02 1.027E-03 3.209E-02 3.209E-02 
5.000E+01 1.738E-07 4.139E-03 3.704E-06 2.806E-02 1.146E-03 3.335E-02 3.335E-02 
6.000E+01 1.207E-07 3.565E-03 3.068E-06 2.960E-02 1.241E-03 3.441E-02 3.441E-02 
8.000E+01 6.789E-08 2.812E-03 2.284E-06 3.188E-02 1.386E-03 3.608E-02 3.608E-02 
1.000E+02 4.344E-08 2.334E-03 1.819E-06 3.351E-02 1.494E-03 3.734E-02 3.734E-02 
1.500E+02 1.931E-08 1.662E-03 1.205E-06 3.612E-02 1.677E-03 3.946E-02 3.946E-02 
2.000E+02 1.086E-08 1.303E-03 9.010E-07 3.770E-02 1.794E-03 4.080E-02 4.080E-02 
3.000E+02 4.830E-09 9.236E-04 5.987E-07 3.954E-02 1.941E-03 4.241E-02 4.241E-02 
4.000E+02 2.716E-09 7.233E-04 4.485E-07 4.061E-02 2.031E-03 4.337E-02 4.337E-02 
5.000E+02 1.738E-09 5.989E-04 3.584E-07 4.132E-02 2.094E-03 4.401E-02 4.401E-02 
6.000E+02 1.207E-09 5.128E-04 2.985E-07 4.182E-02 2.140E-03 4.447E-02 4.447E-02 
8.000E+02 6.789E-10 4.005E-04 2.237E-07 4.250E-02 2.205E-03 4.510E-02 4.510E-02 
1.000E+03 4.344E-10 3.295E-04 1.789E-07 4.293E-02 2.248E-03 4.550E-02 4.550E-02 
1.500E+03 1.931E-10 2.301E-04 1.192E-07 4.356E-02 2.313E-03 4.610E-02 4.610E-02 
2.000E+03 1.086E-10 1.781E-04 8.936E-08 4.391E-02 2.350E-03 4.644E-02 4.644E-02 
3.000E+03 4.830E-11 1.238E-04 5.957E-08 4.431E-02 2.391E-03 4.683E-02 4.683E-02 
4.000E+03 2.716E-11 9.559E-05 4.467E-08 4.450E-02 2.415E-03 4.701E-02 4.701E-02 
5.000E+03 1.738E-11 7.816E-05 3.572E-08 4.463E-02 2.430E-03 4.714E-02 4.714E-02 
6.000E+03 1.207E-11 6.627E-05 2.977E-08 4.473E-02 2.440E-03 4.723E-02 4.723E-02 
8.000E+03 6.789E-12 5.105E-05 2.232E-08 4.482E-02 2.453E-03 4.732E-02 4.732E-02 
1.000E+04 4.344E-12 4.168E-05 1.786E-08 4.491E-02 2.463E-03 4.741E-02 4.741E-02 
1.500E+04 1.931E-12 2.881E-05 1.190E-08 4.500E-02 2.475E-03 4.751E-02 4.751E-02 
2.000E+04 1.086E-12 2.215E-05 8.930E-09 4.505E-02 2.482E-03 4.756E-02 4.756E-02 
3.000E+04 4.830E-13 1.527E-05 5.954E-09 4.513E-02 2.489E-03 4.763E-02 4.763E-02 
4.000E+04 2.716E-13 1.173E-05 4.464E-09 4.514E-02 2.493E-03 4.764E-02 4.764E-02 
5.000E+04 1.738E-13 9.548E-06 3.572E-09 4.518E-02 2.495E-03 4.768E-02 4.768E-02 
6.000E+04 1.207E-13 8.072E-06 2.976E-09 4.518E-02 2.497E-03 4.768E-02 4.768E-02 
8.000E+04 6.789E-14 6.190E-06 2.232E-09 4.519E-02 2.499E-03 4.769E-02 4.769E-02 
1.000E+05 4.344E-14 5.035E-06 1.786E-09 4.522E-02 2.500E-03 4.772E-02 4.772E-02 