Photon    Coherent Incoher. Photoel. Nuclear  Electron Tot. w/  Tot. wo/ 
Energy    Scatter. Scatter. Absorb.  Pr. Prd. Pr. Prd. Coherent Coherent 

1.000E-03 3.858E+00 9.771E-03 3.486E+03 0.000E+00 0.000E+00 3.490E+03 3.486E+03 
1.500E-03 3.589E+00 1.746E-02 1.260E+03 0.000E+00 0.000E+00 1.263E+03 1.260E+03 
1.560E-03 3.557E+00 1.838E-02 1.139E+03 0.000E+00 0.000E+00 1.143E+03 1.139E+03 
1.560E-03 3.557E+00 1.838E-02 1.956E+03 0.000E+00 0.000E+00 1.960E+03 1.956E+03 
2.000E-03 3.320E+00 2.509E-02 1.069E+03 0.000E+00 0.000E+00 1.072E+03 1.069E+03 
2.080E-03 3.278E+00 2.629E-02 9.684E+02 0.000E+00 0.000E+00 9.717E+02 9.685E+02 
2.080E-03 3.278E+00 2.629E-02 1.845E+03 0.000E+00 0.000E+00 1.849E+03 1.845E+03 
2.117E-03 3.258E+00 2.685E-02 1.750E+03 0.000E+00 0.000E+00 1.753E+03 1.750E+03 
2.155E-03 3.239E+00 2.741E-02 1.659E+03 0.000E+00 0.000E+00 1.662E+03 1.659E+03 
2.155E-03 3.239E+00 2.741E-02 2.073E+03 0.000E+00 0.000E+00 2.076E+03 2.073E+03 
2.261E-03 3.184E+00 2.897E-02 1.843E+03 0.000E+00 0.000E+00 1.846E+03 1.843E+03 
2.373E-03 3.129E+00 3.059E-02 1.638E+03 0.000E+00 0.000E+00 1.641E+03 1.638E+03 
2.373E-03 3.129E+00 3.059E-02 1.801E+03 0.000E+00 0.000E+00 1.804E+03 1.801E+03 
2.500E-03 3.067E+00 3.243E-02 1.577E+03 0.000E+00 0.000E+00 1.580E+03 1.577E+03 
3.000E-03 2.837E+00 3.936E-02 9.897E+02 0.000E+00 0.000E+00 9.926E+02 9.897E+02 
4.000E-03 2.433E+00 5.190E-02 4.660E+02 0.000E+00 0.000E+00 4.685E+02 4.661E+02 
5.000E-03 2.104E+00 6.271E-02 2.561E+02 0.000E+00 0.000E+00 2.582E+02 2.561E+02 
5.500E-03 1.963E+00 6.749E-02 1.975E+02 0.000E+00 0.000E+00 1.995E+02 1.975E+02 
6.000E-03 1.836E+00 7.188E-02 1.557E+02 0.000E+00 0.000E+00 1.576E+02 1.558E+02 
7.000E-03 1.617E+00 7.962E-02 1.016E+02 0.000E+00 0.000E+00 1.033E+02 1.017E+02 
8.000E-03 1.435E+00 8.620E-02 7.019E+01 0.000E+00 0.000E+00 7.171E+01 7.028E+01 
8.500E-03 1.355E+00 8.912E-02 5.921E+01 0.000E+00 0.000E+00 6.066E+01 5.930E+01 
1.000E-02 1.149E+00 9.674E-02 3.751E+01 0.000E+00 0.000E+00 3.876E+01 3.761E+01 
1.150E-02 9.821E-01 1.030E-01 2.520E+01 0.000E+00 0.000E+00 2.629E+01 2.530E+01 
1.300E-02 8.476E-01 1.083E-01 1.777E+01 0.000E+00 0.000E+00 1.873E+01 1.788E+01 
1.450E-02 7.386E-01 1.128E-01 1.302E+01 0.000E+00 0.000E+00 1.387E+01 1.313E+01 
1.500E-02 7.070E-01 1.142E-01 1.182E+01 0.000E+00 0.000E+00 1.264E+01 1.193E+01 
1.600E-02 6.497E-01 1.167E-01 9.814E+00 0.000E+00 0.000E+00 1.058E+01 9.931E+00 
1.704E-02 5.973E-01 1.190E-01 8.189E+00 0.000E+00 0.000E+00 8.905E+00 8.308E+00 
1.704E-02 5.973E-01 1.190E-01 4.717E+01 0.000E+00 0.000E+00 4.789E+01 4.729E+01 
1.750E-02 5.759E-01 1.200E-01 4.406E+01 0.000E+00 0.000E+00 4.476E+01 4.418E+01 
1.900E-02 5.140E-01 1.228E-01 3.570E+01 0.000E+00 0.000E+00 3.633E+01 3.582E+01 
2.000E-02 4.784E-01 1.246E-01 3.126E+01 0.000E+00 0.000E+00 3.186E+01 3.139E+01 
2.050E-02 4.621E-01 1.253E-01 2.931E+01 0.000E+00 0.000E+00 2.990E+01 2.943E+01 
2.200E-02 4.185E-01 1.275E-01 2.432E+01 0.000E+00 0.000E+00 2.487E+01 2.445E+01 
2.350E-02 3.814E-01 1.294E-01 2.038E+01 0.000E+00 0.000E+00 2.089E+01 2.051E+01 
2.500E-02 3.493E-01 1.311E-01 1.724E+01 0.000E+00 0.000E+00 1.772E+01 1.737E+01 
2.650E-02 3.213E-01 1.325E-01 1.470E+01 0.000E+00 0.000E+00 1.516E+01 1.483E+01 
2.800E-02 2.967E-01 1.338E-01 1.264E+01 0.000E+00 0.000E+00 1.307E+01 1.277E+01 
2.950E-02 2.749E-01 1.349E-01 1.094E+01 0.000E+00 0.000E+00 1.135E+01 1.108E+01 
3.000E-02 2.682E-01 1.352E-01 1.045E+01 0.000E+00 0.000E+00 1.085E+01 1.058E+01 
3.100E-02 2.555E-01 1.358E-01 9.541E+00 0.000E+00 0.000E+00 9.932E+00 9.676E+00 
3.250E-02 2.380E-01 1.366E-01 8.369E+00 0.000E+00 0.000E+00 8.744E+00 8.506E+00 
3.400E-02 2.223E-01 1.373E-01 7.383E+00 0.000E+00 0.000E+00 7.742E+00 7.520E+00 
3.550E-02 2.080E-01 1.380E-01 6.546E+00 0.000E+00 0.000E+00 6.892E+00 6.684E+00 
3.700E-02 1.951E-01 1.385E-01 5.830E+00 0.000E+00 0.000E+00 6.164E+00 5.969E+00 
3.850E-02 1.833E-01 1.389E-01 5.216E+00 0.000E+00 0.000E+00 5.538E+00 5.354E+00 
4.000E-02 1.725E-01 1.393E-01 4.684E+00 0.000E+00 0.000E+00 4.995E+00 4.823E+00 
4.150E-02 1.626E-01 1.396E-01 4.221E+00 0.000E+00 0.000E+00 4.524E+00 4.361E+00 
4.300E-02 1.535E-01 1.398E-01 3.818E+00 0.000E+00 0.000E+00 4.111E+00 3.957E+00 
4.450E-02 1.451E-01 1.400E-01 3.463E+00 0.000E+00 0.000E+00 3.748E+00 3.603E+00 
4.600E-02 1.374E-01 1.401E-01 3.151E+00 0.000E+00 0.000E+00 3.429E+00 3.291E+00 
4.750E-02 1.303E-01 1.402E-01 2.875E+00 0.000E+00 0.000E+00 3.146E+00 3.016E+00 
4.900E-02 1.237E-01 1.402E-01 2.631E+00 0.000E+00 0.000E+00 2.894E+00 2.771E+00 
5.000E-02 1.196E-01 1.402E-01 2.482E+00 0.000E+00 0.000E+00 2.742E+00 2.623E+00 
5.050E-02 1.176E-01 1.402E-01 2.413E+00 0.000E+00 0.000E+00 2.670E+00 2.553E+00 
5.200E-02 1.119E-01 1.402E-01 2.218E+00 0.000E+00 0.000E+00 2.470E+00 2.358E+00 
5.350E-02 1.066E-01 1.402E-01 2.044E+00 0.000E+00 0.000E+00 2.290E+00 2.184E+00 
5.500E-02 1.017E-01 1.401E-01 1.887E+00 0.000E+00 0.000E+00 2.129E+00 2.027E+00 
5.650E-02 9.718E-02 1.400E-01 1.746E+00 0.000E+00 0.000E+00 1.983E+00 1.886E+00 
5.800E-02 9.291E-02 1.399E-01 1.618E+00 0.000E+00 0.000E+00 1.851E+00 1.758E+00 
5.950E-02 8.893E-02 1.397E-01 1.503E+00 0.000E+00 0.000E+00 1.731E+00 1.642E+00 
6.000E-02 8.766E-02 1.397E-01 1.467E+00 0.000E+00 0.000E+00 1.694E+00 1.606E+00 
6.100E-02 8.520E-02 1.396E-01 1.398E+00 0.000E+00 0.000E+00 1.623E+00 1.538E+00 
6.250E-02 8.171E-02 1.394E-01 1.303E+00 0.000E+00 0.000E+00 1.524E+00 1.442E+00 
6.400E-02 7.844E-02 1.392E-01 1.216E+00 0.000E+00 0.000E+00 1.433E+00 1.355E+00 
6.550E-02 7.536E-02 1.390E-01 1.136E+00 0.000E+00 0.000E+00 1.351E+00 1.275E+00 
6.700E-02 7.246E-02 1.387E-01 1.064E+00 0.000E+00 0.000E+00 1.275E+00 1.203E+00 
6.850E-02 6.973E-02 1.385E-01 9.973E-01 0.000E+00 0.000E+00 1.205E+00 1.136E+00 
7.000E-02 6.716E-02 1.382E-01 9.361E-01 0.000E+00 0.000E+00 1.141E+00 1.074E+00 
7.150E-02 6.473E-02 1.380E-01 8.798E-01 0.000E+00 0.000E+00 1.082E+00 1.018E+00 
7.300E-02 6.243E-02 1.377E-01 8.279E-01 0.000E+00 0.000E+00 1.028E+00 9.656E-01 
7.450E-02 6.025E-02 1.374E-01 7.800E-01 0.000E+00 0.000E+00 9.776E-01 9.174E-01 
7.600E-02 5.819E-02 1.371E-01 7.357E-01 0.000E+00 0.000E+00 9.310E-01 8.728E-01 
7.750E-02 5.624E-02 1.368E-01 6.947E-01 0.000E+00 0.000E+00 8.877E-01 8.315E-01 
7.900E-02 5.438E-02 1.365E-01 6.566E-01 0.000E+00 0.000E+00 8.475E-01 7.932E-01 
8.000E-02 5.319E-02 1.363E-01 6.328E-01 0.000E+00 0.000E+00 8.223E-01 7.691E-01 
8.050E-02 5.262E-02 1.362E-01 6.213E-01 0.000E+00 0.000E+00 8.102E-01 7.575E-01 
8.200E-02 5.094E-02 1.359E-01 5.884E-01 0.000E+00 0.000E+00 7.753E-01 7.244E-01 
8.350E-02 4.934E-02 1.356E-01 5.579E-01 0.000E+00 0.000E+00 7.428E-01 6.935E-01 
8.500E-02 4.782E-02 1.353E-01 5.294E-01 0.000E+00 0.000E+00 7.125E-01 6.647E-01 
8.650E-02 4.637E-02 1.350E-01 5.027E-01 0.000E+00 0.000E+00 6.841E-01 6.378E-01 
8.800E-02 4.499E-02 1.347E-01 4.779E-01 0.000E+00 0.000E+00 6.576E-01 6.126E-01 
8.950E-02 4.366E-02 1.344E-01 4.546E-01 0.000E+00 0.000E+00 6.327E-01 5.890E-01 
9.100E-02 4.240E-02 1.341E-01 4.329E-01 0.000E+00 0.000E+00 6.093E-01 5.669E-01 
9.250E-02 4.119E-02 1.337E-01 4.124E-01 0.000E+00 0.000E+00 5.874E-01 5.462E-01 
9.400E-02 4.003E-02 1.334E-01 3.933E-01 0.000E+00 0.000E+00 5.667E-01 5.267E-01 
9.550E-02 3.893E-02 1.331E-01 3.753E-01 0.000E+00 0.000E+00 5.473E-01 5.084E-01 
9.700E-02 3.786E-02 1.328E-01 3.584E-01 0.000E+00 0.000E+00 5.290E-01 4.911E-01 
9.850E-02 3.684E-02 1.324E-01 3.425E-01 0.000E+00 0.000E+00 5.117E-01 4.749E-01 
1.000E-01 3.587E-02 1.321E-01 3.275E-01 0.000E+00 0.000E+00 4.954E-01 4.596E-01 
1.015E-01 3.493E-02 1.318E-01 3.134E-01 0.000E+00 0.000E+00 4.801E-01 4.451E-01 
1.030E-01 3.402E-02 1.314E-01 3.000E-01 0.000E+00 0.000E+00 4.655E-01 4.315E-01 
1.045E-01 3.316E-02 1.311E-01 2.874E-01 0.000E+00 0.000E+00 4.517E-01 4.185E-01 
1.060E-01 3.232E-02 1.308E-01 2.755E-01 0.000E+00 0.000E+00 4.386E-01 4.063E-01 
1.075E-01 3.152E-02 1.304E-01 2.643E-01 0.000E+00 0.000E+00 4.263E-01 3.947E-01 
1.090E-01 3.074E-02 1.301E-01 2.536E-01 0.000E+00 0.000E+00 4.145E-01 3.838E-01 
1.105E-01 3.000E-02 1.298E-01 2.436E-01 0.000E+00 0.000E+00 4.034E-01 3.734E-01 
1.120E-01 2.928E-02 1.295E-01 2.340E-01 0.000E+00 0.000E+00 3.927E-01 3.635E-01 
1.135E-01 2.859E-02 1.291E-01 2.249E-01 0.000E+00 0.000E+00 3.827E-01 3.541E-01 
1.150E-01 2.792E-02 1.288E-01 2.163E-01 0.000E+00 0.000E+00 3.731E-01 3.451E-01 
1.165E-01 2.727E-02 1.285E-01 2.082E-01 0.000E+00 0.000E+00 3.639E-01 3.366E-01 
1.180E-01 2.665E-02 1.282E-01 2.004E-01 0.000E+00 0.000E+00 3.552E-01 3.286E-01 
1.195E-01 2.605E-02 1.278E-01 1.930E-01 0.000E+00 0.000E+00 3.469E-01 3.209E-01 
1.210E-01 2.547E-02 1.275E-01 1.860E-01 0.000E+00 0.000E+00 3.390E-01 3.135E-01 
1.225E-01 2.490E-02 1.272E-01 1.793E-01 0.000E+00 0.000E+00 3.314E-01 3.065E-01 
1.240E-01 2.436E-02 1.269E-01 1.729E-01 0.000E+00 0.000E+00 3.242E-01 2.998E-01 
1.255E-01 2.383E-02 1.265E-01 1.669E-01 0.000E+00 0.000E+00 3.172E-01 2.934E-01 
1.270E-01 2.332E-02 1.262E-01 1.611E-01 0.000E+00 0.000E+00 3.106E-01 2.873E-01 
1.285E-01 2.283E-02 1.259E-01 1.556E-01 0.000E+00 0.000E+00 3.043E-01 2.815E-01 
1.300E-01 2.235E-02 1.256E-01 1.503E-01 0.000E+00 0.000E+00 2.982E-01 2.759E-01 
1.315E-01 2.189E-02 1.253E-01 1.452E-01 0.000E+00 0.000E+00 2.924E-01 2.705E-01 
1.330E-01 2.144E-02 1.250E-01 1.404E-01 0.000E+00 0.000E+00 2.868E-01 2.654E-01 
1.345E-01 2.101E-02 1.246E-01 1.358E-01 0.000E+00 0.000E+00 2.815E-01 2.605E-01 
1.360E-01 2.058E-02 1.243E-01 1.314E-01 0.000E+00 0.000E+00 2.763E-01 2.557E-01 
1.375E-01 2.017E-02 1.240E-01 1.272E-01 0.000E+00 0.000E+00 2.714E-01 2.512E-01 
1.390E-01 1.978E-02 1.237E-01 1.232E-01 0.000E+00 0.000E+00 2.666E-01 2.469E-01 
1.405E-01 1.939E-02 1.234E-01 1.193E-01 0.000E+00 0.000E+00 2.621E-01 2.427E-01 
1.420E-01 1.901E-02 1.231E-01 1.156E-01 0.000E+00 0.000E+00 2.577E-01 2.387E-01 
1.435E-01 1.865E-02 1.228E-01 1.120E-01 0.000E+00 0.000E+00 2.535E-01 2.348E-01 
1.450E-01 1.830E-02 1.225E-01 1.086E-01 0.000E+00 0.000E+00 2.494E-01 2.311E-01 
1.465E-01 1.795E-02 1.222E-01 1.053E-01 0.000E+00 0.000E+00 2.455E-01 2.275E-01 
1.480E-01 1.762E-02 1.219E-01 1.022E-01 0.000E+00 0.000E+00 2.417E-01 2.241E-01 
1.495E-01 1.729E-02 1.216E-01 9.919E-02 0.000E+00 0.000E+00 2.381E-01 2.208E-01 
1.500E-01 1.719E-02 1.215E-01 9.821E-02 0.000E+00 0.000E+00 2.369E-01 2.197E-01 
2.000E-01 1.002E-02 1.124E-01 4.192E-02 0.000E+00 0.000E+00 1.644E-01 1.543E-01 
3.000E-01 4.608E-03 9.862E-02 1.296E-02 0.000E+00 0.000E+00 1.162E-01 1.116E-01 
4.000E-01 2.636E-03 8.872E-02 5.842E-03 0.000E+00 0.000E+00 9.720E-02 9.456E-02 
5.000E-01 1.703E-03 8.117E-02 3.248E-03 0.000E+00 0.000E+00 8.612E-02 8.442E-02 
6.000E-01 1.189E-03 7.519E-02 2.062E-03 0.000E+00 0.000E+00 7.844E-02 7.725E-02 
8.000E-01 6.730E-04 6.615E-02 1.058E-03 0.000E+00 0.000E+00 6.788E-02 6.721E-02 
1.000E+00 4.320E-04 5.952E-02 6.593E-04 0.000E+00 0.000E+00 6.061E-02 6.018E-02 
1.022E+00 4.139E-04 5.889E-02 6.269E-04 0.000E+00 0.000E+00 5.994E-02 5.952E-02 
1.250E+00 2.771E-04 5.325E-02 4.232E-04 6.703E-05 0.000E+00 5.401E-02 5.374E-02 
1.500E+00 1.926E-04 4.840E-02 3.040E-04 3.317E-04 0.000E+00 4.923E-02 4.904E-02 
2.000E+00 1.085E-04 4.132E-02 1.861E-04 1.219E-03 0.000E+00 4.284E-02 4.273E-02 
2.044E+00 1.039E-04 4.081E-02 1.796E-04 1.309E-03 0.000E+00 4.240E-02 4.230E-02 
3.000E+00 4.827E-05 3.252E-02 9.975E-05 3.304E-03 1.138E-05 3.598E-02 3.593E-02 
4.000E+00 2.715E-05 2.712E-02 6.660E-05 5.225E-03 4.644E-05 3.249E-02 3.246E-02 
5.000E+00 1.738E-05 2.343E-02 4.951E-05 6.915E-03 9.251E-05 3.050E-02 3.048E-02 
6.000E+00 1.207E-05 2.071E-02 3.926E-05 8.401E-03 1.420E-04 2.930E-02 2.929E-02 
7.000E+00 8.869E-06 1.861E-02 3.242E-05 9.725E-03 1.914E-04 2.857E-02 2.856E-02 
8.000E+00 6.789E-06 1.694E-02 2.760E-05 1.092E-02 2.394E-04 2.813E-02 2.812E-02 
9.000E+00 5.364E-06 1.557E-02 2.400E-05 1.200E-02 2.853E-04 2.789E-02 2.788E-02 
1.000E+01 4.345E-06 1.443E-02 2.122E-05 1.299E-02 3.290E-04 2.777E-02 2.777E-02 
1.100E+01 3.592E-06 1.346E-02 1.900E-05 1.389E-02 3.704E-04 2.774E-02 2.774E-02 
1.200E+01 3.018E-06 1.262E-02 1.720E-05 1.472E-02 4.095E-04 2.777E-02 2.776E-02 
1.300E+01 2.572E-06 1.189E-02 1.571E-05 1.548E-02 4.466E-04 2.783E-02 2.783E-02 
1.400E+01 2.217E-06 1.125E-02 1.446E-05 1.618E-02 4.818E-04 2.793E-02 2.793E-02 
1.500E+01 1.932E-06 1.068E-02 1.338E-05 1.684E-02 5.150E-04 2.805E-02 2.805E-02 
1.600E+01 1.698E-06 1.017E-02 1.246E-05 1.746E-02 5.469E-04 2.819E-02 2.819E-02 
1.800E+01 1.341E-06 9.293E-03 1.095E-05 1.859E-02 6.060E-04 2.850E-02 2.850E-02 
2.000E+01 1.087E-06 8.570E-03 9.760E-06 1.960E-02 6.598E-04 2.884E-02 2.884E-02 
2.200E+01 8.980E-07 7.961E-03 8.801E-06 2.052E-02 7.095E-04 2.920E-02 2.920E-02 
2.400E+01 7.545E-07 7.440E-03 8.015E-06 2.136E-02 7.550E-04 2.956E-02 2.956E-02 
2.600E+01 6.428E-07 6.985E-03 7.358E-06 2.212E-02 7.974E-04 2.991E-02 2.991E-02 
2.800E+01 5.544E-07 6.589E-03 6.800E-06 2.282E-02 8.369E-04 3.025E-02 3.025E-02 
3.000E+01 4.830E-07 6.239E-03 6.319E-06 2.347E-02 8.736E-04 3.058E-02 3.058E-02 
4.000E+01 2.716E-07 4.957E-03 4.669E-06 2.610E-02 1.027E-03 3.209E-02 3.209E-02 
5.000E+01 1.738E-07 4.139E-03 3.704E-06 2.806E-02 1.146E-03 3.335E-02 3.335E-02 
6.000E+01 1.207E-07 3.565E-03 3.068E-06 2.960E-02 1.241E-03 3.441E-02 3.441E-02 
8.000E+01 6.789E-08 2.812E-03 2.284E-06 3.188E-02 1.386E-03 3.608E-02 3.608E-02 
1.000E+02 4.344E-08 2.334E-03 1.819E-06 3.351E-02 1.494E-03 3.734E-02 3.734E-02 
1.500E+02 1.931E-08 1.662E-03 1.205E-06 3.612E-02 1.677E-03 3.946E-02 3.946E-02 
2.000E+02 1.086E-08 1.303E-03 9.010E-07 3.770E-02 1.794E-03 4.080E-02 4.080E-02 
3.000E+02 4.830E-09 9.236E-04 5.987E-07 3.954E-02 1.941E-03 4.241E-02 4.241E-02 
4.000E+02 2.716E-09 7.233E-04 4.485E-07 4.061E-02 2.031E-03 4.337E-02 4.337E-02 
5.000E+02 1.738E-09 5.989E-04 3.584E-07 4.132E-02 2.094E-03 4.401E-02 4.401E-02 
6.000E+02 1.207E-09 5.128E-04 2.985E-07 4.182E-02 2.140E-03 4.447E-02 4.447E-02 
8.000E+02 6.789E-10 4.005E-04 2.237E-07 4.250E-02 2.205E-03 4.510E-02 4.510E-02 
1.000E+03 4.344E-10 3.295E-04 1.789E-07 4.293E-02 2.248E-03 4.550E-02 4.550E-02 
1.500E+03 1.931E-10 2.301E-04 1.192E-07 4.356E-02 2.313E-03 4.610E-02 4.610E-02 
2.000E+03 1.086E-10 1.781E-04 8.936E-08 4.391E-02 2.350E-03 4.644E-02 4.644E-02 
3.000E+03 4.830E-11 1.238E-04 5.957E-08 4.431E-02 2.391E-03 4.683E-02 4.683E-02 
4.000E+03 2.716E-11 9.559E-05 4.467E-08 4.450E-02 2.415E-03 4.701E-02 4.701E-02 
5.000E+03 1.738E-11 7.816E-05 3.572E-08 4.463E-02 2.430E-03 4.714E-02 4.714E-02 
6.000E+03 1.207E-11 6.627E-05 2.977E-08 4.473E-02 2.440E-03 4.723E-02 4.723E-02 
8.000E+03 6.789E-12 5.105E-05 2.232E-08 4.482E-02 2.453E-03 4.732E-02 4.732E-02 
1.000E+04 4.344E-12 4.168E-05 1.786E-08 4.491E-02 2.463E-03 4.741E-02 4.741E-02 
1.500E+04 1.931E-12 2.881E-05 1.190E-08 4.500E-02 2.475E-03 4.751E-02 4.751E-02 
2.000E+04 1.086E-12 2.215E-05 8.930E-09 4.505E-02 2.482E-03 4.756E-02 4.756E-02 
3.000E+04 4.830E-13 1.527E-05 5.954E-09 4.513E-02 2.489E-03 4.763E-02 4.763E-02 
4.000E+04 2.716E-13 1.173E-05 4.464E-09 4.514E-02 2.493E-03 4.764E-02 4.764E-02 
5.000E+04 1.738E-13 9.548E-06 3.572E-09 4.518E-02 2.495E-03 4.768E-02 4.768E-02 
6.000E+04 1.207E-13 8.072E-06 2.976E-09 4.518E-02 2.497E-03 4.768E-02 4.768E-02 
8.000E+04 6.789E-14 6.190E-06 2.232E-09 4.519E-02 2.499E-03 4.769E-02 4.769E-02 
1.000E+05 4.344E-14 5.035E-06 1.786E-09 4.522E-02 2.500E-03 4.772E-02 4.772E-02 